Data from FLMS007011_11-15-37-421.txt Node
Date: Thu Apr 21 11:15:37 MDT 2016
User: lab_user
Spectrometer: FLMS00701
Autoset integration time: false
Trigger mode: 0
Integration Time (sec): 5.000000E-3
Scans to average: 10
Electric dark correction enabled: true
Nonlinearity correction enabled: true
Boxcar width: 0
XAxis mode: Wavelengths
Stop averaging: false
Number of Pixels in Spectrum: 2048
>>>>>Begin Spectral Data<<<<<
178.41	33.69
178.791	33.69
179.172	33.69
179.553	-50.89
179.934	-60.89
180.316	-61.75
180.697	-39.45
181.078	-58.04
181.459	-59.46
181.84	-59.46
182.221	-29.45
182.602	-22.59
182.983	-6.3
183.364	18.55
183.744	61.67
184.125	69.66
184.506	96.77
184.887	100.19
185.268	124.15
185.648	172.33
186.029	186.29
186.41	183.16
186.791	209.37
187.171	244.68
187.552	294.2
187.932	347.66
188.313	363.01
188.694	385.75
189.074	385.75
189.455	395.97
189.835	423.81
190.216	410.18
190.596	442.55
190.977	438.86
191.357	476.61
191.737	484.55
192.118	471.22
192.498	480.01
192.878	469.8
193.258	506.96
193.639	509.23
194.019	518.31
194.399	519.73
194.779	518.88
195.159	500.44
195.54	518.31
195.92	523.13
196.3	532.2
196.68	522.56
197.06	507.25
197.44	571.32
197.82	516.89
198.2	511.22
198.58	507.82
198.959	536.74
199.339	523.98
199.719	535.04
200.099	562.82
200.479	498.17
200.858	539.01
201.238	527.67
201.618	529.37
201.998	533.62
202.377	500.72
202.757	520.01
203.136	534.47
203.516	534.19
203.896	555.73
204.275	535.89
204.655	531.07
205.034	540.43
205.414	524.26
205.793	553.75
206.172	559.42
206.552	514.62
206.931	573.02
207.31	563.95
207.69	564.8
208.069	561.69
208.448	560.55
208.827	573.31
209.207	567.35
209.586	613.82
209.965	595.69
210.344	614.67
210.723	590.87
211.102	617.5
211.481	592.57
211.86	620.61
212.239	638.17
212.618	649.21
212.997	652.04
213.376	639.3
213.755	663.93
214.134	677.23
214.513	700.71
214.891	691.38
215.27	707.22
215.649	730.41
216.028	710.33
216.406	727.01
216.785	705.52
217.164	747.37
217.542	758.68
217.921	764.33
218.3	805.86
218.678	773.66
219.057	815.47
219.435	823.94
219.814	851.89
220.192	851.04
220.57	854.99
220.949	895.91
221.327	897.32
221.705	937.65
222.084	908.32
222.462	931.16
222.84	991.48
223.218	1015.14
223.597	1034.01
223.975	1051.18
224.353	1050.62
224.731	1108.87
225.109	1136.43
225.487	1145.7
225.865	1176.34
226.243	1210.06
226.621	1219.89
226.999	1250.77
227.377	1274.91
227.755	1344.76
228.133	1328.21
228.511	1374.47
228.889	1412.01
229.266	1455.7
229.644	1448.98
230.022	1474.45
230.4	1558.09
230.777	1551.38
231.155	1648.89
231.533	1651.12
231.91	1676.24
232.288	1712.24
232.665	1771.92
233.043	1803.13
233.42	1816.23
233.798	1836.56
234.175	1895.58
234.553	1945.66
234.93	1964.57
235.307	2031.54
235.685	2095.41
236.062	2072.65
236.439	2138.97
236.816	2158.11
237.194	2208.84
237.571	2268.96
237.948	2315.19
238.325	2328.2
238.702	2341.2
239.079	2365.55
239.456	2410.34
239.833	2450.96
240.21	2506.19
240.587	2536.56
240.964	2580.15
241.341	2635.84
241.718	2700.3
242.095	2701.13
242.472	2756.19
242.849	2789.48
243.225	2822.75
243.602	2848.87
243.979	2891.74
244.356	2940.62
244.732	2956.54
245.109	2990.84
245.486	2988.37
245.862	3056.39
246.239	3136.4
246.615	3157.76
246.992	3174.73
247.368	3258.72
247.745	3269.39
248.121	3344.81
248.497	3328.42
248.874	3410.34
249.25	3440.63
249.626	3497.36
250.003	3455.91
250.379	3583.74
250.755	3583.74
251.131	3672.75
251.507	3639.01
251.884	3698.59
252.26	3694.51
252.636	3814.37
253.012	3779.33
253.388	3857.27
253.764	3876
254.14	3888.48
254.516	3980.42
254.892	3963.88
255.268	4003.45
255.643	4006.44
256.019	4026.76
256.395	4059.8
256.771	4164.53
257.147	4189.14
257.522	4167.78
257.898	4200.22
258.274	4193.19
258.649	4200.76
259.025	4275.89
259.4	4266.97
259.776	4323.41
260.151	4331.24
260.527	4387.91
260.902	4360.12
261.278	4385.48
261.653	4421.08
262.028	4443.19
262.404	4435.91
262.779	4456.4
263.154	4522.14
263.53	4584.6
263.905	4535.06
264.28	4533.99
264.655	4537.22
265.03	4553.37
265.405	4579.22
265.781	4630.61
266.156	4613.12
266.531	4656.43
266.906	4627.65
267.281	4643.79
267.655	4538.56
268.03	4619.04
268.405	4669.87
268.78	4685.2
269.155	4725.51
269.53	4622.54
269.904	4665.57
270.279	4699.71
270.654	4732.77
271.029	4717.18
271.403	4717.18
271.778	4681.43
272.152	4666.38
272.527	4713.69
272.901	4733.57
273.276	4749.69
273.65	4765.27
274.025	4798.84
274.399	4749.69
274.774	4718.26
275.148	4782.73
275.522	4747.01
275.897	4729.81
276.271	4749.16
276.645	4794.01
277.019	4827.29
277.393	4817.9
277.768	4786.22
278.142	4750.5
278.516	4806.09
278.89	4794.81
279.264	4796.96
279.638	4807.97
280.012	4765
280.386	4742.98
280.76	4732.23
281.133	4780.31
281.507	4765.27
281.881	4735.72
282.255	4740.29
282.629	4740.02
283.002	4702.67
283.376	4707.24
283.75	4721.21
284.123	4740.29
284.497	4720.94
284.87	4711.27
285.244	4689.23
285.618	4676.06
285.991	4687.08
286.364	4657.77
286.738	4630.34
287.111	4646.48
287.485	4625.77
287.858	4565.49
288.231	4600.48
288.605	4608.01
288.978	4572.76
289.351	4512.71
289.724	4472.84
290.097	4464.21
290.47	4402.74
290.843	4454.78
291.217	4407.06
291.59	4391.41
291.963	4350.13
292.336	4322.6
292.708	4333.67
293.081	4265.08
293.454	4241.58
293.827	4236.98
294.2	4202.66
294.573	4185.08
294.945	4134.5
295.318	4150.47
295.691	4115.29
296.064	4099.6
296.436	4054.11
296.809	4109.61
297.181	4028.11
297.554	4022.42
297.926	3994.78
298.299	4033.53
298.671	3980.15
299.044	3942.46
299.416	3929.17
299.788	3897.71
300.161	3889.03
300.533	3888.21
300.905	3951.95
301.278	3911
301.65	3935.14
302.022	3871.66
302.394	3876.27
302.766	3902.86
303.138	3847.5
303.51	3873.01
303.882	3883.6
304.254	3859.44
304.626	3853.2
304.998	3850.21
305.37	3769.55
305.742	3790.47
306.114	3768.46
306.485	3751.61
306.857	3758.13
307.229	3743.18
307.601	3738.29
307.972	3724.97
308.344	3719.8
308.716	3729.59
309.087	3701.58
309.459	3729.59
309.83	3763.84
310.202	3788.57
310.573	3871.66
310.945	3929.99
311.316	3935.95
311.687	4063.59
312.059	4171.56
312.43	4262.11
312.801	4330.43
313.172	4498.7
313.544	4541.8
313.915	4735.45
314.286	4827.29
314.657	4916.09
315.028	4976.93
315.399	5120.97
315.77	5206.53
316.141	5271.45
316.512	5338.19
316.883	5398.48
317.254	5465.13
317.625	5454.47
317.996	5462.47
318.366	5486.98
318.737	5543.19
319.108	5482.19
319.478	5536.26
319.849	5608.4
320.22	5685.54
320.59	5770.31
320.961	5875.44
321.331	5980.19
321.702	6079.01
322.072	6251.22
322.443	6429.73
322.813	6695.05
323.184	6876.19
323.554	7064.08
323.924	7270.74
324.295	7300.57
324.665	7479.35
325.035	7683.39
325.405	7824.33
325.775	7849.84
326.145	7925.3
326.515	7893.04
326.886	7995.76
327.256	7955.46
327.626	7941.16
327.995	7909.95
328.365	7928.94
328.735	7925.82
329.105	7873.52
329.475	7940.38
329.845	7941.94
330.215	8073.72
330.584	8072.94
330.954	8204.31
331.324	8270.71
331.693	8292.5
332.063	8309.61
332.432	8262.16
332.802	8258.53
333.171	8180.95
333.541	7910.99
333.91	7837.6
334.28	7569.68
334.649	7405.94
335.018	7235.67
335.388	7070.37
335.757	6848.08
336.126	6655.31
336.495	6592.64
336.865	6378.27
337.234	6210.51
337.603	6043.26
337.972	5973.83
338.341	5887.38
338.71	5746.67
339.079	5518.42
339.448	5505.9
339.817	5416.08
340.186	5335.52
340.554	5233.25
340.923	5172.85
341.292	5105.18
341.661	5076.28
342.029	5006.67
342.398	4993
342.767	4877.74
343.135	4844.2
343.504	4847.15
343.872	4863.79
344.241	4797.76
344.609	4793.2
344.978	4712.08
345.346	4659.92
345.715	4643.25
346.083	4547.18
346.451	4524.83
346.82	4495.74
347.188	4544.76
347.556	4463.13
347.924	4454.78
348.292	4406.79
348.66	4442.92
349.028	4429.71
349.396	4410.02
349.764	4430.25
350.132	4467.45
350.5	4526.18
350.868	4524.56
351.236	4549.07
351.604	4645.94
351.972	4670.68
352.34	4711.27
352.707	4793.47
353.075	4854.66
353.443	4869.15
353.81	4950.94
354.178	4991.93
354.545	5138.89
354.913	5184.88
355.28	5239.13
355.648	5352.33
356.015	5467.8
356.383	5548.78
356.75	5582.06
357.117	5717.7
357.485	5762.61
357.852	5870.14
358.219	5958.46
358.586	6040.87
358.954	6066.03
359.321	6124.54
359.688	6201.78
360.055	6306.97
360.422	6364.02
360.789	6465.34
361.156	6524.4
361.523	6553.13
361.89	6617.14
362.256	6799.99
362.623	6705.58
362.99	6815.23
363.357	6856.75
363.724	6948.39
364.09	7022.12
364.457	7077.45
364.823	7096.59
365.19	7222.06
365.557	7248.5
365.923	7295.6
366.29	7378.5
366.656	7510.17
367.022	7568.11
367.389	7563.42
367.755	7586.64
368.121	7609.34
368.488	7739.42
368.854	7758.18
369.22	7746.72
369.586	7754.27
369.952	7791.52
370.318	7833.96
370.684	7940.64
371.051	7967.69
371.416	7899.8
371.782	8068.26
372.148	8098.4
372.514	8096.58
372.88	8132.41
373.246	8217.54
373.612	8310.9
373.977	8274.34
374.343	8426.72
374.709	8547.6
375.074	8463.23
375.44	8493
375.806	8543.98
376.171	8641.48
376.537	8613.3
376.902	8639.41
377.268	8805
377.633	8788.48
377.998	8890.94
378.364	9087.11
378.729	9071.91
379.094	9063.92
379.459	8956.19
379.825	8892.75
380.19	8947.94
380.555	8864.37
380.92	8794.16
381.285	8807.58
381.65	8893
382.015	8948.46
382.38	8899.45
382.745	8851.72
383.11	8804.49
383.474	8902.29
383.839	8845.01
384.204	8898.94
384.569	8851.98
384.933	8844.24
385.298	8797.26
385.663	8836.24
386.027	8894.55
386.392	8981.2
386.756	9082.98
387.121	9185.46
387.485	9309.2
387.849	9371.66
388.214	9272.16
388.578	9223.8
388.942	9099.73
389.307	9083.24
389.671	9116.98
390.035	9227.4
390.399	9264.96
390.763	9303.02
391.127	9460.29
391.492	9717.63
391.856	9912.04
392.219	10151.4
392.583	10129.17
392.947	9867.24
393.311	9682.51
393.675	9562.72
394.039	9515.5
394.403	9454.9
394.766	9528.33
395.13	9471.85
395.494	9442.83
395.857	9530.13
396.221	9568.88
396.584	9832.16
396.948	9985.99
397.311	10352.6
397.675	10415.6
398.038	10562.68
398.401	10246.93
398.765	10127.12
399.128	9939.17
399.491	9763.76
399.854	9699.43
400.218	9648.66
400.581	9620.45
400.944	9561.7
401.307	9454.13
401.67	9468
402.033	9417.65
402.396	9325.91
402.759	9422.79
403.122	9629.17
403.485	9654.05
403.847	9791.94
404.21	9854.69
404.573	10075.24
404.936	10093.39
405.298	9917.92
405.661	9748.39
406.023	9529.87
406.386	9457.21
406.749	9370.38
407.111	9389.39
407.473	9646.36
407.836	9773.5
408.198	9850.6
408.561	9899.5
408.923	9968.59
409.285	9827.55
409.647	9730.7
410.009	9653.54
410.372	9590.95
410.734	9509.59
411.096	9570.68
411.458	9582.48
411.82	9735.57
412.182	9869.54
412.544	9833.95
412.906	9903.85
413.267	9922.02
413.629	9734.04
413.991	9707.12
414.353	9657.13
414.714	9582.23
415.076	9506.26
415.438	9518.58
415.799	9621.22
416.161	9520.38
416.522	9460.81
416.884	9387.34
417.245	9412.52
417.607	9412.77
417.968	9379.11
418.329	9474.42
418.691	9502.41
419.052	9604.29
419.413	9680.72
419.774	9800.65
420.135	10053.25
420.497	10395.2
420.858	10827.67
421.219	10833.77
421.58	10632.98
421.941	10416.88
422.302	10049.67
422.662	9981.64
423.023	9834.46
423.384	9767.09
423.745	9878.76
424.106	9876.46
424.466	9986.5
424.827	9761.2
425.187	9550.15
425.548	9357.27
425.909	9189.32
426.269	9334.13
426.63	9431.78
426.99	9605.83
427.35	9578.89
427.711	9648.92
428.071	9793.48
428.431	10031.26
428.792	10747.53
429.152	11384.64
429.512	11578.64
429.872	11468.75
430.232	11289.33
430.592	10780.61
430.952	10122.01
431.312	9726.6
431.672	9282.97
432.032	9368.32
432.392	9564.78
432.752	10303.34
433.111	10765.6
433.471	10787.22
433.831	10143.99
434.19	9987.01
434.55	9996.99
434.91	9769.4
435.269	9931.74
435.629	9998.01
435.988	10059.39
436.348	9913.57
436.707	9729.93
437.066	9538.34
437.426	9722.25
437.785	9761.2
438.144	9831.65
438.503	9761.71
438.862	9545.53
439.222	9518.07
439.581	9384.25
439.94	9591.46
440.299	10158.81
440.658	10685.18
441.017	10831.73
441.376	10711.65
441.734	10510.7
442.093	10356.68
442.452	10530.58
442.811	10564.21
443.169	10638.08
443.528	10384.23
443.887	10289.05
444.245	10274.76
444.604	10027.93
444.962	9925.35
445.321	9844.71
445.679	9933.54
446.038	10022.05
446.396	9838.3
446.754	9594.54
447.112	9581.71
447.471	9423.56
447.829	9299.17
448.187	9346.73
448.545	9366.01
448.903	9329.25
449.261	9284.51
449.619	9172.59
449.977	9157.15
450.335	8863.33
450.693	8904.87
451.051	8853.79
451.409	8733.47
451.766	8827.2
452.124	8607.09
452.482	8402.63
452.839	8178.62
453.197	8145.65
453.555	8053.46
453.912	8130.59
454.27	8291.72
454.627	8546.57
454.984	8512.41
455.342	8387.61
455.699	8185.11
456.056	8169.27
456.414	8325.16
456.771	8598.3
457.128	8656.99
457.485	8814.04
457.842	8711.51
458.199	8734.25
458.556	8838.56
458.913	8870.56
459.27	8938.14
459.627	8788.48
459.984	8850.95
460.341	8912.35
460.697	8667.33
461.054	8315.05
461.411	7950.78
461.767	7757.4
462.124	7691.21
462.481	7862.33
462.837	8115.28
463.194	8425.69
463.55	8373.62
463.907	8729.34
464.263	9013.93
464.619	9352.64
464.976	9620.19
465.332	9746.08
465.688	9293.25
466.044	8756.98
466.4	8435.79
466.756	8217.8
467.112	8149.81
467.468	8203.27
467.824	8045.4
468.18	7926.86
468.536	7830.84
468.892	7610.12
469.248	7553.5
469.604	7380.59
469.959	7475.96
470.315	7451.41
470.671	7442
471.026	7551.93
471.382	7656.8
471.737	7827.19
472.093	7986.92
472.448	8255.67
472.804	8477.21
473.159	8650.01
473.514	8666.03
473.87	8728.31
474.225	9143.76
474.58	9565.03
474.935	9670.97
475.29	9466.71
475.645	9288.11
476	9257.76
476.355	9122.13
476.71	9132.17
477.065	9459.01
477.42	9756.33
477.775	9781.95
478.13	9746.85
478.485	9938.4
478.839	10076
479.194	10445.18
479.549	10743.21
479.903	10852.84
480.258	10638.33
480.612	10915.89
480.967	11298.2
481.321	11409.47
481.675	11057.91
482.03	10728.7
482.384	10602.17
482.738	10610.83
483.093	10766.87
483.447	11150.06
483.801	11764.32
484.155	12216.03
484.509	14612.75
484.863	29790.86
485.217	39459.05
485.571	41278.77
485.925	29018.01
486.279	21250.44
486.632	17085.3
486.986	14183.08
487.34	12387.43
487.694	11561.42
488.047	11147.01
488.401	11139.14
488.754	10932.16
489.108	10674.23
489.461	10524.21
489.815	10348.51
490.168	10429.12
490.522	10563.19
490.875	10587.65
491.228	10436
491.581	10493.88
491.935	10548.41
492.288	10457.17
492.641	10550.45
492.994	10496.68
493.347	10724.63
493.7	10801.72
494.053	10807.57
494.406	10474.76
494.759	10197.38
495.111	10441.1
495.464	11286.03
495.817	11831.3
496.169	11623.18
496.522	10832.24
496.875	10012.33
497.227	9709.17
497.58	9713.79
497.932	9857.25
498.285	10014.12
498.637	10403.11
498.989	10710.12
499.342	10638.08
499.694	10330.65
500.046	10017.19
500.398	10352.09
500.751	10672.45
501.103	10703.25
501.455	10720.3
501.807	10747.28
502.159	10744.73
502.511	10745.75
502.862	10679.07
503.214	10490.05
503.566	10126.36
503.918	9843.94
504.27	9854.44
504.621	9808.08
504.973	9661.74
505.324	9716.09
505.676	10044.04
506.027	10091.85
506.379	9588.64
506.73	9295.57
507.082	9260.59
507.433	9559.39
507.784	9719.43
508.136	9472.11
508.487	9373.2
508.838	9153.03
509.189	9096.38
509.54	9278.34
509.891	9171.56
510.242	9163.07
510.593	9055.42
510.944	8920.35
511.295	8765.76
511.646	8512.41
511.996	8487.82
512.347	8554.07
512.698	8670.69
513.049	8573.21
513.399	8464.01
513.75	8505.94
514.1	8220.14
514.451	7957.28
514.801	7895.12
515.152	8066.71
515.502	8217.54
515.852	8406.78
516.202	8406.26
516.553	8315.05
516.903	8032.67
517.253	7802.2
517.603	7757.66
517.953	7746.98
518.303	8050.6
518.653	8237.78
519.003	8202.49
519.353	7790.22
519.703	7393.92
520.052	7260.8
520.402	7306.59
520.752	7430.51
521.102	7310.77
521.451	7208.97
521.801	7255.57
522.15	7278.07
522.5	7461.33
522.849	7464.73
523.199	7573.07
523.548	7715.71
523.897	7658.37
524.246	7488.5
524.596	7269.44
524.945	7208.71
525.294	7171.26
525.643	7241.69
525.992	7303.71
526.341	7329.34
526.69	7249.02
527.039	7142.97
527.388	7062.25
527.737	7336.4
528.086	7868.84
528.434	8235.96
528.783	8011.88
529.132	7694.86
529.48	7540.45
529.829	7385.82
530.177	7261.85
530.526	7236.46
530.874	7331.43
531.223	7288.54
531.571	7272.58
531.919	7296.12
532.268	7608.81
532.616	8128.26
532.964	8461.16
533.312	8526.13
533.66	8463.75
534.008	8505.94
534.356	8499.21
534.704	8417.92
535.052	8251.52
535.4	7879.51
535.748	7545.41
536.095	7206.88
536.443	7047.56
536.791	7247.45
537.139	7567.07
537.486	7911.25
537.834	8127.48
538.181	8213.39
538.529	8192.37
538.876	8230.77
539.223	8028.77
539.571	7774.59
539.918	7696.17
540.265	7883.41
540.613	8136.05
540.96	8096.06
541.307	8016.82
541.654	7974.97
542.001	7996.02
542.348	7948.96
542.695	7905.53
543.042	8145.65
543.388	8270.2
543.735	8450.29
544.082	8424.91
544.429	8425.17
544.775	8158.63
545.122	7767.82
545.469	7450.36
545.815	7368.83
546.162	7517.22
546.508	7740.47
546.854	8159.93
547.201	8853.53
547.547	9142.47
547.893	8907.19
548.24	8280.57
548.586	7484.58
548.932	7229.92
549.278	7015.83
549.624	7236.2
549.97	7081.65
550.316	6802.88
550.662	6658.47
551.008	7111
551.353	7925.56
551.699	8420.25
552.045	8285.75
552.391	7876.12
552.736	7734.73
553.082	7660.19
553.427	7458.72
553.773	7112.05
554.118	6962.3
554.464	7187.5
554.809	7681.31
555.154	8148.25
555.5	8091.12
555.845	7639.59
556.19	7241.43
556.535	6930.28
556.88	7054.64
557.225	7079.81
557.57	6997.47
557.915	6676.1
558.26	6399.39
558.605	6456.64
558.95	6560.5
559.295	7101.57
559.639	7778.76
559.984	8421.54
560.329	8579.68
560.673	8629.07
561.018	8328.01
561.362	7925.04
561.707	7511.47
562.051	7535.23
562.395	7653.93
562.74	8006.94
563.084	8129.3
563.428	8488.86
563.772	8551.22
564.117	8632.17
564.461	8671.72
564.805	8583.3
565.149	8654.92
565.493	8580.2
565.836	8938.66
566.18	9073.45
566.524	10112.3
566.868	10910.3
567.212	11416.06
567.555	11672.51
567.899	12616.04
568.242	13702.82
568.586	15379.71
568.929	17399
569.273	19612.94
569.616	20377.85
569.96	20942.86
570.303	22103.26
570.646	22913.74
570.989	24111.71
571.333	24090.86
571.676	22918.41
572.019	20103.7
572.362	20825.17
572.705	23692.13
573.048	26596.8
573.391	28402.57
573.733	29650.91
574.076	30664.03
574.419	29591.64
574.762	26994.8
575.104	24103.13
575.447	23299.51
575.789	25625.75
576.132	28765.56
576.474	29778.8
576.817	34052.52
577.159	38674.77
577.501	40063.94
577.844	36203.61
578.186	29512.7
578.528	26189.54
578.87	25154.33
579.212	25936.23
579.554	27928.6
579.896	27912.39
580.238	30442.79
580.58	38733.24
580.922	45068.16
581.264	48824.09
581.606	43572.67
581.947	38641.08
582.289	31986.03
582.631	25737.42
582.972	22086.33
583.314	21540.25
583.655	22232.88
583.997	25877.57
584.338	29990.1
584.679	33213.65
585.021	33021.09
585.362	29460.32
585.703	25822.34
586.044	24491.06
586.385	26116.39
586.726	28548.29
587.067	27901.83
587.408	25473.1
587.749	23295.1
588.09	21240.36
588.431	19419.75
588.772	17555.38
589.113	17583.05
589.453	17683.32
589.794	16979.44
590.134	15637.13
590.475	14653.63
590.815	14659.11
591.156	14634.93
591.496	15107.13
591.837	19094.52
592.177	23289.7
592.517	26570.53
592.857	25408.81
593.198	22961.11
593.538	19411.38
593.878	17691.47
594.218	17820.84
594.558	19024.57
594.898	18745.95
595.237	17214.37
595.577	15239.72
595.917	13755.37
596.257	14120.88
596.596	14644.41
596.936	15453.03
597.276	14644.65
597.615	14864.41
597.955	17809.73
598.294	20714.83
598.633	21593.54
598.973	20667.15
599.312	20239.19
599.651	20155.83
599.991	19523.86
600.33	18887.13
600.669	17914.89
601.008	16925.26
601.347	15774.93
601.686	16095.75
602.025	16032.76
602.364	17251.45
602.702	17983.99
603.041	17974.37
603.38	16994.53
603.719	15633.9
604.057	14639.92
604.396	14401.5
604.734	15158.88
605.073	17423.95
605.411	17790.97
605.75	17037.32
606.088	15688.53
606.426	15773.94
606.764	16122.04
607.103	15608.31
607.441	14669.33
607.779	13896.19
608.117	13797.65
608.455	13129.17
608.793	12584.84
609.131	13755.62
609.469	14580.58
609.806	14814.35
610.144	13221
610.482	12523.68
610.819	12506.56
611.157	12244.53
611.495	11782.01
611.832	11457.1
612.17	11454.56
612.507	11694.27
612.844	11656.32
613.182	11497.37
613.519	11657.59
613.856	11723.86
614.193	11813.61
614.53	12324.18
614.867	12502.53
615.205	11806.79
615.541	11072.63
615.878	10034.07
616.215	10029.72
616.552	9843.43
616.889	10077.54
617.226	10311
617.562	9983.69
617.899	9128.05
618.235	8333.45
618.572	7571.25
618.908	7815.48
619.245	8356.26
619.581	8681.8
619.918	8037.87
620.254	6588.69
620.59	6055.7
620.926	6369.82
621.262	7186.98
621.599	7398.63
621.935	7445.14
622.271	7979.39
622.606	8345.63
622.942	8253.08
623.278	7840.47
623.614	8185.88
623.95	8368.96
624.285	8319.97
624.621	7656.28
624.957	7089.25
625.292	6760.81
625.628	6369.82
625.963	6154.7
626.299	6327.84
626.634	6416.01
626.969	6374.58
627.304	5699.63
627.64	5013.36
627.975	4873.98
628.31	5192.36
628.645	5543.99
628.98	5509.63
629.315	5376.35
629.65	5245.54
629.985	5236.46
630.319	4946.11
630.654	4764.73
630.989	4765.27
631.323	4645.67
631.658	4385.75
631.993	4096.62
632.327	3950.6
632.662	3952.22
632.996	4054.92
633.33	4090.39
633.665	3992.89
633.999	3824.69
634.333	3724.97
634.667	3679.55
635.001	3824.69
635.335	4028.38
635.669	4350.94
636.003	4435.1
636.337	4138.29
636.671	3812.2
637.005	3546.69
637.339	3518.08
637.672	3662.68
638.006	3848.58
638.339	3864.33
638.673	3698.59
639.006	3469.55
639.34	3426.99
639.673	3351.09
640.007	3269.39
640.34	3205.11
640.673	3162.41
641.006	3130.65
641.34	2988.92
641.673	2911.51
642.006	2805.7
642.339	2876.08
642.672	2877.17
643.004	2865.63
643.337	2769.95
643.67	2714.9
644.003	2777.65
644.336	2761.14
644.668	2755.09
645.001	2706.09
645.333	2649.89
645.666	2572.97
645.998	2432.45
646.331	2362.5
646.663	2406.74
646.995	2581.8
647.327	2912.61
647.66	3303.01
647.992	3477.73
648.324	3602.26
648.656	3574.48
648.988	3398.33
649.32	3087.36
649.652	2812.03
649.983	2629.22
650.315	2547.32
650.647	2598.62
650.979	2787.55
651.31	2974.93
651.642	3177.74
651.973	3218.24
652.305	3254.89
652.636	3153.1
652.967	3075.58
653.299	2959.56
653.63	2983.98
653.961	3230.28
654.292	4662.88
654.623	27681.23
654.955	68648.57
655.286	68648.57
655.616	68648.57
655.947	68648.57
656.278	68648.57
656.609	52315.19
656.94	32153.8
657.27	22795.94
657.601	16973.26
657.932	11563.96
658.262	7481.97
658.593	4955.76
658.923	3493
659.254	2796.9
659.584	2398.18
659.914	2201.08
660.244	2064.87
660.575	2026.82
660.905	2032.65
661.235	2080.42
661.565	2094.3
661.895	2103.73
662.225	2074.31
662.555	2034.04
662.884	2058.48
663.214	2154.5
663.544	2149.51
663.873	2208.01
664.203	2281.7
664.533	2341.48
664.862	2348.67
665.192	2311.6
665.521	2170.31
665.85	2028.49
666.18	1904.21
666.509	1904.21
666.838	1901.15
667.167	1997.37
667.496	1955.39
667.825	1928.41
668.154	1883.61
668.483	1947.88
668.812	1990.42
669.141	2067.37
669.47	2115.11
669.798	2072.09
670.127	2020.99
670.456	2177.52
670.784	2545.11
671.113	3045.97
671.441	3443.09
671.77	3468.73
672.098	3287.15
672.426	2880.47
672.755	2520.82
673.083	2392.92
673.411	2315.19
673.739	2285.3
674.067	2113.45
674.395	2087.08
674.723	2127.32
675.051	2124.55
675.379	2188.61
675.706	2128.15
676.034	2083.19
676.362	2035.99
676.689	2198.31
677.017	2508.68
677.344	2690.94
677.672	2763.07
677.999	2698.65
678.327	2717.1
678.654	2917.83
678.981	3044.33
679.308	3170.9
679.636	3013.61
679.963	2757.01
680.29	2661.74
680.617	2680.2
680.944	2758.94
681.271	2714.62
681.597	2486.87
681.924	2202.75
682.251	2138.97
682.578	2256.5
682.904	2487.97
683.231	2755.91
683.557	2846.95
683.884	3041.58
684.21	3178.01
684.536	3367.48
684.863	3502.54
685.189	3535.25
685.515	3282.51
685.841	3075.58
686.167	2968.34
686.493	3011.97
686.819	3047.07
687.145	2853.54
687.471	2532.42
687.797	2361.4
688.123	2307.17
688.448	2362.78
688.774	2507.85
689.1	2508.13
689.425	2373.01
689.751	2286.13
690.076	2388.5
690.402	2699.2
690.727	2944.19
691.052	2958.46
691.377	2762.79
691.703	2614.61
692.028	2619.58
692.353	2649.34
692.678	2673.31
693.003	2574.35
693.328	2280.59
693.652	2103.46
693.977	2054.6
694.302	2190.55
694.627	2342.03
694.951	2278.1
695.276	2038.21
695.6	1852.71
695.925	2176.69
696.249	2693.7
696.574	3060.23
696.898	3037.47
697.222	2819.73
697.546	2618.47
697.871	2421.67
698.195	2382.97
698.519	2290
698.843	2218.82
699.167	2097.35
699.491	1955.67
699.814	1880.83
700.138	1871.09
700.462	1817.34
700.786	1795.05
701.109	1869.42
701.433	1998.2
701.756	2104.84
702.08	2175.03
702.403	2123.16
702.726	1988.75
703.05	1899.48
703.373	1838.23
703.696	1814
704.019	1774.7
704.342	1682.1
704.665	1570.11
704.988	1514.74
705.311	1601.12
705.634	1884.17
705.957	2259.54
706.28	2616.54
706.602	2835.13
706.925	2791.13
707.247	2653.2
707.57	2501.78
707.892	2323.5
708.215	2162.27
708.537	2026.27
708.859	1993.48
709.182	1995.7
709.504	2079.03
709.826	2138.97
710.148	2132.31
710.47	2053.21
710.792	1961.23
711.114	1833.77
711.436	1737.9
711.758	1757.98
712.079	1795.05
712.401	1915.62
712.723	2050.71
713.044	2227.69
713.366	2354.21
713.687	2380.48
714.009	2288.07
714.33	2229.07
714.652	2065.15
714.973	1998.76
715.294	1838.79
715.615	1688.52
715.936	1605.59
716.257	1513.9
716.578	1522.85
716.899	1582.68
717.22	1675.96
717.541	1821.24
717.862	1834.89
718.182	1818.73
718.503	1888.07
718.824	1953.44
719.144	1864.13
719.465	1779.16
719.785	1776.38
720.105	1848.53
720.426	1925.35
720.746	1883.34
721.066	1857.72
721.386	1815.39
721.706	1771.92
722.026	1687.97
722.346	1623.75
722.666	1695.22
722.986	1710.29
723.306	1709.45
723.626	1672.34
723.946	1680.43
724.265	1764.67
724.585	1944.27
724.904	2009.59
725.224	2031.82
725.543	2013.48
725.863	1984.58
726.182	1885.84
726.501	1816.78
726.82	1828.76
727.14	1851.04
727.459	1995.42
727.778	2015.71
728.097	1991.53
728.416	2012.1
728.734	2076.81
729.053	2161.99
729.372	2188.61
729.691	2261.76
730.009	2445.71
730.328	2617.65
730.647	2697.28
730.965	2503.99
731.283	2424.71
731.602	2289.73
731.92	2346.18
732.238	2440.19
732.557	2446.54
732.875	2594.76
733.193	2816.98
733.511	3002.09
733.829	2951.33
734.147	2728.39
734.465	2467.81
734.782	2418.63
735.1	2463.12
735.418	2505.92
735.735	2515.86
736.053	2536.83
736.371	2509.23
736.688	2374.12
737.005	2217.99
737.323	2024.04
737.64	2025.99
737.957	2070.42
738.274	2386.84
738.592	2570.49
738.909	2563.6
739.226	2253.17
739.543	2001.54
739.86	1793.66
740.176	1715.87
740.493	1598.33
740.81	1554.73
741.127	1563.12
741.443	1667.31
741.76	1766.9
742.076	1745.15
742.393	1688.24
742.709	1543.55
743.025	1468.85
743.342	1438.9
743.658	1487.32
743.974	1554.45
744.29	1583.8
744.606	1584.36
744.922	1537.4
745.238	1548.3
745.554	1462.14
745.87	1484.81
746.186	1503.55
746.501	1586.87
746.817	1653.91
747.132	1483.41
747.448	1382.6
747.763	1378.95
748.079	1439.18
748.394	1620.4
748.71	1781.39
749.025	1985.69
749.34	2118.72
749.655	2104.57
749.97	2010.98
750.285	1968.46
750.6	2013.76
750.915	2099.02
751.23	2069.04
751.545	1984.86
751.859	1858.56
752.174	1773.87
752.489	1900.87
752.803	2094.02
753.118	2096.24
753.432	2076.81
753.747	1969.85
754.061	1959.56
754.375	2129.54
754.689	2203.58
755.004	2283.08
755.318	2376.61
755.632	2528
755.946	2701.41
756.26	2855.19
756.573	3144.89
756.887	3332.24
757.201	3325.14
757.515	2925.24
757.828	2602.21
758.142	2514.75
758.455	2768.29
758.769	3033.36
759.082	3226.17
759.396	3326.51
759.709	3377.04
760.022	3395.06
760.335	3182.39
760.648	2853.82
760.962	2547.87
761.275	2308.55
761.587	2183.34
761.9	2177.24
762.213	2212.72
762.526	2340.93
762.839	2361.95
763.151	2468.92
763.464	2666.43
763.776	2993.04
764.089	3258.99
764.401	3129.83
764.714	2821.1
765.026	2606.62
765.338	2356.97
765.65	2092.91
765.962	1900.31
766.275	1745.15
766.587	1730.09
766.898	1763
767.21	1924.8
767.522	2128.43
767.834	2301.63
768.146	2299.97
768.457	2170.87
768.769	1993.48
769.08	1930.64
769.392	2045.43
769.703	2208.01
770.015	2393.75
770.326	2413.93
770.637	2293.88
770.948	2048.76
771.26	1896.42
771.571	1797.56
771.882	1836.56
772.193	1836
772.504	1771.92
772.814	1694.94
773.125	1675.69
773.436	1541.31
773.747	1489
774.057	1439.18
774.368	1397.45
774.678	1354.01
774.989	1298.76
775.299	1241.23
775.609	1238.42
775.919	1244.6
776.23	1258.35
776.54	1263.68
776.85	1230.28
777.16	1258.35
777.47	1362.7
777.78	1516.42
778.089	1627.38
778.399	1639.95
778.709	1567.87
779.019	1482.85
779.328	1354.29
779.638	1350.92
779.947	1487.88
780.257	1715.59
780.566	1865.8
780.875	1822.08
781.185	1735.67
781.494	1661.45
781.803	1628.22
782.112	1557.81
782.421	1553.05
782.73	1610.9
783.039	1622.08
783.348	1484.25
783.656	1326.53
783.965	1276.88
784.274	1344.48
784.582	1394.36
784.891	1418.17
785.199	1381.47
785.508	1326.25
785.816	1287.82
786.124	1282.77
786.432	1408.37
786.741	1503.27
787.049	1536.84
787.357	1527.61
787.665	1517.54
787.973	1528.45
788.281	1463.81
788.588	1369.7
788.896	1268.18
789.204	1183.09
789.511	1177.47
789.819	1141.49
790.126	1132.49
790.434	1094.8
790.741	1119.27
791.049	1079.89
791.356	1058.78
791.663	1012.61
791.97	1001.9
792.277	1025.84
792.584	1111.96
792.891	1283.05
793.198	1490.68
793.505	1574.02
793.812	1541.03
794.119	1487.04
794.425	1447.58
794.732	1369.42
795.038	1199.94
795.345	1061.6
795.651	985.28
795.958	947.52
796.264	1018.52
796.57	1052.87
796.876	1108.87
797.183	1080.73
797.489	1023.59
797.795	998.24
798.101	992.89
798.406	1007.26
798.712	917.07
799.018	961.05
799.324	914.24
799.629	904.37
799.935	879.55
800.24	890.83
800.546	866.85
800.851	860.64
801.157	829.87
801.462	830.72
801.767	804.45
802.072	834.1
802.377	888.86
802.682	888.29
802.987	900.71
803.292	834.95
803.597	835.8
803.902	817.16
804.207	836.64
804.511	860.64
804.816	862.61
805.12	991.2
805.425	1080.17
805.729	1096.21
806.034	1077.92
806.338	1015.14
806.642	971.76
806.946	994.86
807.251	966.12
807.555	999.93
807.859	977.11
808.162	965.84
808.466	937.37
808.77	922.14
809.074	858.1
809.378	841.44
809.681	827.04
809.985	812.08
810.288	841.16
810.592	840.6
810.895	794.28
811.198	763.2
811.502	711.46
811.805	710.61
812.108	694.49
812.411	743.7
812.714	839.47
813.017	907.48
813.32	924.68
813.623	901.83
813.926	815.18
814.228	775.07
814.531	743.7
814.833	706.93
815.136	687.98
815.438	717.12
815.741	738.89
816.043	736.06
816.345	744.83
816.648	792.3
816.95	747.65
817.252	723.62
817.554	727.3
817.856	677.8
818.158	672.99
818.46	671.57
818.761	685.44
819.063	637.6
819.365	729.28
819.666	746.24
819.968	802.47
820.269	814.34
820.571	790.04
820.872	751.89
821.173	736.63
821.475	690.53
821.776	681.76
822.077	663.08
822.378	659.97
822.679	663.65
822.98	680.63
823.281	638.45
823.581	634.49
823.882	630.53
824.183	674.97
824.483	688.83
824.784	679.78
825.084	678.64
825.385	680.91
825.685	652.04
825.985	668.17
826.286	667.89
826.586	701.84
826.886	709.76
827.186	700.71
827.486	652.04
827.786	653.17
828.086	645.53
828.386	683.45
828.685	699.86
828.985	672.14
829.285	649.49
829.584	633.07
829.884	591.16
830.183	575.57
830.482	558
830.782	573.87
831.081	564.52
831.38	557.15
831.679	547.8
831.978	567.35
832.277	595.69
832.576	629.39
832.875	592.29
833.174	612.12
833.472	631.66
833.771	612.68
834.07	592.29
834.368	610.42
834.667	582.94
834.965	594.84
835.263	592.57
835.562	587.19
835.86	561.69
836.158	544.11
836.456	552.05
836.754	543.83
837.052	530.22
837.35	525.68
837.648	539.29
837.946	519.44
838.243	549.78
838.541	531.07
838.839	535.61
839.136	550.35
839.434	573.02
839.731	547.51
840.028	552.62
840.326	557.72
840.623	544.68
840.92	546.66
841.217	540.43
841.514	528.52
841.811	526.25
842.108	511.5
842.405	552.9
842.701	548.93
842.998	498.74
843.295	502.43
843.591	544.4
843.888	526.25
844.184	505.55
844.481	537.88
844.777	499.02
845.073	533.62
845.369	530.79
845.665	517.46
845.962	491.93
846.258	508.95
846.553	495.33
846.849	520.29
847.145	515.76
847.441	519.44
847.737	517.18
848.032	525.68
848.328	500.44
848.623	504.98
848.919	459.01
849.214	514.06
849.509	489.94
849.805	471.5
850.1	494.2
850.395	495.62
850.69	471.78
850.985	497.32
851.28	507.25
851.575	506.4
851.869	488.81
852.164	510.37
852.459	555.17
852.753	577.27
853.048	574.16
853.342	590.02
853.637	613.25
853.931	605.04
854.225	594.27
854.52	622.03
854.814	590.31
855.108	581.24
855.402	552.33
855.696	541.28
855.99	556.87
856.283	547.51
856.577	565.09
856.871	540.14
857.164	560.27
857.458	532.49
857.751	526.82
858.045	539.58
858.338	513.49
858.632	535.32
858.925	506.11
859.218	505.55
859.511	520.01
859.804	493.92
860.097	506.4
860.39	508.1
860.683	500.16
860.976	499.59
861.268	481.15
861.561	485.69
861.854	486.26
862.146	511.5
862.439	498.74
862.731	522.85
863.023	498.17
863.316	500.72
863.608	512.64
863.9	499.02
864.192	493.92
864.484	490.51
864.776	500.72
865.068	502.71
865.36	491.93
865.651	486.26
865.943	502.14
866.235	489.38
866.526	467.81
866.818	481.72
867.109	503.28
867.4	466.39
867.692	487.11
867.983	488.24
868.274	502.99
868.565	492.78
868.856	487.96
869.147	486.54
869.438	506.4
869.729	457.03
870.02	482.28
870.31	470.08
870.601	481.15
870.892	481.15
871.182	457.88
871.473	482.57
871.763	505.83
872.053	500.72
872.343	478.88
872.634	497.89
872.924	504.7
873.214	488.53
873.504	507.53
873.794	481.43
874.084	482
874.373	477.46
874.663	482.57
874.953	502.14
875.242	479.73
875.532	487.96
875.821	506.68
876.111	502.99
876.4	490.51
876.689	457.88
876.978	488.24
877.268	467.53
877.557	499.59
877.846	482
878.134	505.83
878.423	505.83
878.712	505.83
