Data from FLMS007011_12-19-53-752.txt Node
Date: Thu Apr 21 12:19:53 MDT 2016
User: lab_user
Spectrometer: FLMS00701
Autoset integration time: false
Trigger mode: 0
Integration Time (sec): 5.000000E-3
Scans to average: 10
Electric dark correction enabled: true
Nonlinearity correction enabled: true
Boxcar width: 0
XAxis mode: Wavelengths
Stop averaging: false
Number of Pixels in Spectrum: 2048
>>>>>Begin Spectral Data<<<<<
178.41	32.85
178.791	32.85
179.172	32.85
179.553	-39.72
179.934	-39.44
180.316	-71.46
180.697	-69.17
181.078	-49.16
181.459	-41.15
181.84	-38.29
182.221	-44.01
182.602	-27.15
182.983	-5.43
183.364	15.43
183.744	53.97
184.125	69.67
184.506	86.8
184.887	100.21
185.268	102.77
185.648	140.99
186.029	183.17
186.41	200.27
186.791	210.24
187.171	242.7
187.552	304.17
187.932	314.98
188.313	344.55
188.694	373.54
189.074	361.32
189.455	412.75
189.835	410.48
190.216	424.11
190.596	479.18
190.977	453.92
191.357	477.76
191.737	485.99
192.118	472.94
192.498	468.68
192.878	500.17
193.258	491.09
193.639	506.41
194.019	513.22
194.399	480.03
194.779	489.96
195.159	511.24
195.54	510.67
195.92	503.29
196.3	504.71
196.68	485.99
197.06	534.77
197.44	545.26
197.82	517.76
198.2	498.47
198.58	501.59
198.959	520.03
199.339	512.94
199.719	521.44
200.099	525.13
200.479	523.71
200.858	480.31
201.238	490.53
201.618	489.96
201.998	495.35
202.377	487.69
202.757	506.13
203.136	511.52
203.516	501.02
203.896	484.29
204.275	519.74
204.655	514.07
205.034	525.41
205.414	507.83
205.793	537.89
206.172	513.79
206.552	520.03
206.931	512.65
207.31	535.91
207.69	525.98
208.069	519.46
208.448	521.16
208.827	521.73
209.207	544.69
209.586	534.21
209.965	553.2
210.344	507.83
210.723	565.39
211.102	542.43
211.481	558.3
211.86	572.47
212.239	536.76
212.618	532.79
212.997	564.25
213.376	560
213.755	592.02
214.134	573.89
214.513	604.2
214.891	557.17
215.27	597.97
215.649	592.02
216.028	603.64
216.406	620.35
216.785	623.18
217.164	617.23
217.542	632.52
217.921	628.84
218.3	628.56
218.678	668.47
219.057	669.04
219.435	656.02
219.814	675.83
220.192	684.6
220.57	703.56
220.949	696.77
221.327	716.28
221.705	734.1
222.084	716.85
222.462	732.97
222.84	755.02
223.218	781.87
223.597	772.82
223.975	783
224.353	817.74
224.731	815.76
225.109	849.93
225.487	880.97
225.865	898.18
226.243	905.8
226.621	944.15
226.999	964.16
227.377	988.12
227.755	997.41
228.133	1038.25
228.511	1026.14
228.889	1099.6
229.266	1097.91
229.644	1167.65
230.022	1171.58
230.4	1216.25
230.777	1235.91
231.155	1252.47
231.533	1302.98
231.91	1327.95
232.288	1355.42
232.665	1411.47
233.043	1426.31
233.42	1438.91
233.798	1480.62
234.175	1542.72
234.553	1535.45
234.93	1598.63
235.307	1623.77
235.685	1662.3
236.062	1663.14
236.439	1721.18
236.816	1771.93
237.194	1822.65
237.571	1847.99
237.948	1893.37
238.325	1897.54
238.702	1891.14
239.079	1981.82
239.456	2008.78
239.833	2068.5
240.21	2112.08
240.587	2133.99
240.964	2129
241.341	2203.32
241.718	2264.55
242.095	2282.54
242.472	2317.15
242.849	2348.97
243.225	2351.45
243.602	2382.43
243.979	2420.03
244.356	2491.02
244.732	2529.67
245.109	2564.99
245.486	2544.3
245.862	2611.87
246.239	2658.45
246.615	2708.31
246.992	2740.24
247.368	2736.66
247.745	2799.94
248.121	2829.09
248.497	2844.76
248.874	2888.73
249.25	2948.32
249.626	2938.16
250.003	2981.53
250.379	3005.95
250.755	3051.2
251.131	3125.73
251.507	3098.89
251.884	3163.79
252.26	3198.01
252.636	3184.87
253.012	3187.61
253.388	3253.27
253.764	3292.64
254.14	3292.36
254.516	3340.18
254.892	3363.13
255.268	3399.44
255.643	3387.43
256.019	3392.07
256.395	3477.2
256.771	3476.11
257.147	3473.92
257.522	3488.92
257.898	3560.88
258.274	3548.34
258.649	3553.79
259.025	3575.04
259.4	3589.75
259.776	3603.64
260.151	3656.99
260.527	3670.32
260.902	3685.01
261.278	3706.49
261.653	3667.05
262.028	3695.89
262.404	3732.05
262.779	3742.66
263.154	3801.89
263.53	3769.83
263.905	3784.23
264.28	3813.84
264.655	3766.84
265.03	3783.69
265.405	3741.57
265.781	3806.51
266.156	3804.88
266.531	3790.75
266.906	3820.36
267.281	3881.71
267.655	3842.63
268.03	3832.04
268.405	3804.88
268.78	3812.76
269.155	3865.7
269.53	3814.39
269.904	3829.59
270.279	3786.14
270.654	3824.16
271.029	3818.19
271.403	3843.71
271.778	3850.5
272.152	3811.4
272.527	3858.37
272.901	3860.82
273.276	3866.52
273.65	3908.85
274.025	3831.22
274.399	3848.6
274.774	3846.7
275.148	3835.3
275.522	3866.24
275.897	3843.44
276.271	3826.61
276.645	3907.49
277.019	3856.2
277.393	3865.43
277.768	3831.49
278.142	3829.59
278.516	3846.16
278.89	3875.2
279.264	3786.68
279.638	3831.77
280.012	3829.87
280.386	3804.34
280.76	3799.18
281.133	3780.16
281.507	3804.88
281.881	3784.51
282.255	3827.15
282.629	3777.44
283.002	3758.69
283.376	3776.63
283.75	3821.18
284.123	3765.49
284.497	3712.21
284.87	3714.38
285.244	3753.26
285.618	3724.98
285.991	3675.76
286.364	3690.99
286.738	3694.53
287.111	3700.51
287.485	3649.64
287.858	3592.74
288.231	3659.16
288.605	3584.57
288.978	3575.59
289.351	3555.15
289.724	3549.98
290.097	3531.45
290.47	3514.82
290.843	3482.11
291.217	3460.83
291.59	3474.74
291.963	3421.55
292.336	3431.92
292.708	3348.92
293.081	3419.91
293.454	3383.33
293.827	3356.57
294.2	3273.23
294.573	3288.81
294.945	3298.38
295.318	3272.41
295.691	3245.34
296.064	3201.57
296.436	3199.38
296.809	3210.6
297.181	3197.46
297.554	3161.6
297.926	3175.02
298.299	3181.31
298.671	3175.29
299.044	3109.3
299.416	3104.36
299.788	3147.64
300.161	3123.81
300.533	3113.95
300.905	3152.02
301.278	3104.09
301.65	3090.94
302.022	3069.01
302.394	3109.3
302.766	3073.95
303.138	3115.87
303.51	3107.1
303.882	3154.76
304.254	3141.34
304.626	3145.45
304.998	3174.47
305.37	3160.24
305.742	3186.79
306.114	3200.47
306.485	3239.59
306.857	3242.05
307.229	3239.87
307.601	3275.14
307.972	3343.46
308.344	3344.55
308.716	3395.89
309.087	3418
309.459	3399.98
309.83	3453.47
310.202	3466.29
310.573	3525.18
310.945	3535.26
311.316	3489.2
311.687	3548.89
312.059	3551.88
312.43	3570.95
312.801	3563.05
313.172	3598.46
313.544	3635.21
313.915	3586.75
314.286	3646.65
314.657	3676.3
315.028	3677.94
315.399	3708.94
315.77	3761.68
316.141	3791.3
316.512	3899.89
316.883	3905.05
317.254	4024.06
317.625	3990.46
317.996	4105.29
318.366	4170.77
318.737	4251.86
319.108	4248.35
319.478	4308.85
319.849	4330.71
320.22	4391.16
320.59	4369.31
320.961	4396.28
321.331	4369.04
321.702	4351.5
322.072	4298.86
322.443	4313.44
322.813	4343.13
323.184	4284.81
323.554	4239.97
323.924	4217.54
324.295	4177.26
324.665	4165.36
325.035	4123.97
325.405	4028.12
325.775	3946.82
326.145	3842.9
326.515	3769.29
326.886	3687.18
327.256	3520.82
327.626	3420.45
327.995	3327.89
328.365	3202.93
328.735	3102.45
329.105	3069.84
329.475	2995.52
329.845	2950.52
330.215	2932.12
330.584	2869.22
330.954	2842.56
331.324	2775.74
331.693	2781.79
332.063	2714.36
332.432	2682.69
332.802	2582.37
333.171	2545.95
333.541	2475.56
333.91	2449.04
334.28	2434.67
334.649	2444.35
335.018	2436.61
335.388	2455.95
335.757	2516.98
336.126	2583.47
336.495	2663.96
336.865	2717.12
337.234	2802.97
337.603	2935.42
337.972	3074.5
338.341	3207.59
338.71	3390.7
339.079	3532.81
339.448	3659.71
339.817	3835.02
340.186	3984.77
340.554	4222.4
340.923	4381.72
341.292	4525.38
341.661	4727.68
342.029	4842.6
342.398	5056.49
342.767	5184.89
343.135	5394.77
343.504	5496.06
343.872	5708.41
344.241	5842.02
344.609	5972.52
344.978	6143.08
345.346	6289.29
345.715	6424.47
346.083	6452.96
346.451	6641.11
346.82	6781.07
347.188	6894.06
347.556	6963.37
347.924	7013.48
348.292	7117.05
348.66	7265.26
349.028	7309.48
349.396	7413.8
349.764	7483.81
350.132	7595
350.5	7646.91
350.868	7738.66
351.236	7756.37
351.604	7823.04
351.972	7953.14
352.34	7958.08
352.707	8083.86
353.075	8067.24
353.443	8062.56
353.81	8159.17
354.178	8224.04
354.545	8270.99
354.913	8308.84
355.28	8280.84
355.648	8396.95
356.015	8410.16
356.383	8440.98
356.75	8481.89
357.117	8456
357.485	8570.38
357.852	8503.11
358.219	8627.01
358.586	8540.63
358.954	8667.34
359.321	8633.74
359.688	8683.62
360.055	8623.65
360.422	8708.69
360.789	8731.94
361.156	8722.12
361.523	8747.69
361.89	8702.74
362.256	8674.32
362.623	8739.17
362.99	8814.57
363.357	8814.57
363.724	8820.51
364.09	8874.96
364.457	8785.91
364.823	8877.28
365.19	8877.54
365.557	8957.24
365.923	8935.58
366.29	8899.21
366.656	8927.58
367.022	9003.38
367.389	8988.69
367.755	8967.29
368.121	8923.46
368.488	8914.94
368.854	8977.6
369.22	8934.29
369.586	8864.12
369.952	8859.99
370.318	8769.64
370.684	8812.5
371.051	8833.67
371.416	8742.78
371.782	8845.54
372.148	8783.33
372.514	8715.92
372.88	8781.78
373.246	8799.34
373.612	8866.44
373.977	8804.5
374.343	8882.96
374.709	9037.4
375.074	8907.98
375.44	8903.34
375.806	8868.51
376.171	8890.7
376.537	8910.82
376.902	8841.67
377.268	8926.81
377.633	8965.75
377.998	9034.56
378.364	9189.08
378.729	9188.05
379.094	9181.87
379.459	9022.2
379.825	8985.08
380.19	8965.75
380.555	8803.98
380.92	8742.27
381.285	8702.74
381.65	8803.73
382.015	8730.64
382.38	8833.93
382.745	8664.24
383.11	8661.14
383.474	8736.07
383.839	8700.42
384.204	8723.67
384.569	8624.95
384.933	8573.48
385.298	8548.13
385.663	8620.81
386.027	8531.06
386.392	8656.74
386.756	8710.24
387.121	8846.83
387.485	8853.54
387.849	8938.67
388.214	8855.86
388.578	8846.32
388.942	8627.53
389.307	8655.97
389.671	8644.59
390.035	8677.68
390.399	8667.6
390.763	8827.22
391.127	8883.21
391.492	9114.68
391.856	9249.29
392.219	9461.59
392.583	9479.57
392.947	9268.58
393.311	9017.3
393.675	8905.14
394.039	8838.06
394.403	8832.38
394.766	8735.81
395.13	8708.94
395.494	8697.58
395.857	8721.6
396.221	8792.88
396.584	8955.69
396.948	9145.06
397.311	9345.97
397.675	9593.79
398.038	9655.09
398.401	9452.09
398.765	9250.57
399.128	8959.3
399.491	8805.79
399.854	8776.62
400.218	8633.74
400.581	8657.52
400.944	8629.6
401.307	8461.43
401.67	8578.66
402.033	8437.61
402.396	8407.57
402.759	8483.96
403.122	8475.67
403.485	8514.5
403.847	8654.93
404.21	8751.57
404.573	8878.31
404.936	8848.9
405.298	8777.91
405.661	8658.55
406.023	8446.93
406.386	8335.02
406.749	8238.83
407.111	8216
407.473	8378.3
407.836	8494.05
408.198	8595.47
408.561	8640.2
408.923	8585.64
409.285	8639.68
409.647	8538.56
410.009	8385.55
410.372	8340.47
410.734	8253.35
411.096	8262.43
411.458	8346.43
411.82	8446.93
412.182	8448.49
412.544	8503.11
412.906	8566.5
413.267	8555.38
413.629	8431.4
413.991	8327.25
414.353	8360.68
414.714	8212.63
415.076	8188.23
415.438	8176.82
415.799	8237.01
416.161	8139.44
416.522	8096.07
416.884	8026.45
417.245	8090.1
417.607	8023.59
417.968	8001.24
418.329	8131.39
418.691	8093.22
419.052	8109.84
419.413	8198.1
419.774	8259.84
420.135	8650.02
420.497	8841.41
420.858	9076.82
421.219	9166.17
421.58	9135.79
421.941	8906.17
422.302	8582.8
422.662	8521.74
423.023	8395.4
423.384	8312.21
423.745	8351.35
424.106	8338.39
424.466	8441.24
424.827	8336.06
425.187	8155.79
425.548	7914.91
425.909	7770.7
426.269	7887.85
426.63	7933.89
426.99	8136.58
427.35	8130.61
427.711	8116.33
428.071	8184.08
428.431	8403.17
428.792	8901.27
429.152	9509.09
429.512	9738.66
429.872	9663.3
430.232	9512.18
430.592	9120.86
430.952	8652.61
431.312	8208.99
431.672	7936.49
432.032	7779.29
432.392	7891.23
432.752	8549.43
433.111	9043.84
433.471	9093.82
433.831	8650.02
434.19	8466.61
434.55	8441.76
434.91	8242.72
435.269	8307.29
435.629	8423.89
435.988	8479.04
436.348	8347.46
436.707	8150.86
437.066	8070.1
437.426	8165.14
437.785	8219.89
438.144	8279.29
438.503	8115.03
438.862	8153.71
439.222	7998.38
439.581	7898.78
439.94	7953.66
440.299	8404.46
440.658	8824.38
441.017	9098.45
441.376	9061.88
441.734	8840.38
442.093	8752.08
442.452	8710.24
442.811	8870.83
443.169	8919.33
443.528	8661.65
443.887	8579.17
444.245	8496.64
444.604	8331.39
444.962	8252.06
445.321	8299.25
445.679	8275.14
446.038	8324.4
446.396	8247.39
446.754	8030.35
447.112	7981.22
447.471	7859.48
447.829	7732.92
448.187	7836.32
448.545	7879.78
448.903	7754.81
449.261	7727.45
449.619	7614.57
449.977	7679.5
450.335	7497.39
450.693	7463.18
451.051	7379.04
451.409	7329.88
451.766	7327
452.124	7222.6
452.482	7034.99
452.839	6886.71
453.197	6882.24
453.555	6747.94
453.912	6746.36
454.27	6858.08
454.627	7120.19
454.984	7102.63
455.342	6986.99
455.699	6831.01
456.056	6868.32
456.414	6933.71
456.771	7103.16
457.128	7196.42
457.485	7261.34
457.842	7223.91
458.199	7304.25
458.556	7371.19
458.913	7366.23
459.27	7427.91
459.627	7312.36
459.984	7323.6
460.341	7360.74
460.697	7255.06
461.054	7033.42
461.411	6721.11
461.767	6424.2
462.124	6383.04
462.481	6505.43
462.837	6657.43
463.194	7033.15
463.55	6936.33
463.907	7195.11
464.263	7411.71
464.619	7675.33
464.976	7964.32
465.332	8092.44
465.688	7828.51
466.044	7291.17
466.4	7004.56
466.756	6776.6
467.112	6829.96
467.468	6761.62
467.824	6714.8
468.18	6538.91
468.536	6515.19
468.892	6380.4
469.248	6315.71
469.604	6217.14
469.959	6219.78
470.315	6186.72
470.671	6149.69
471.026	6229.03
471.382	6399.93
471.737	6461.66
472.093	6686.12
472.448	6817.35
472.804	7001.42
473.159	7156.35
473.514	7206.89
473.87	7228.1
474.225	7576.48
474.58	7905.02
474.935	8015.27
475.29	7953.4
475.645	7740.48
476	7674.02
476.355	7611.96
476.71	7534.46
477.065	7771.48
477.42	8024.63
477.775	8128.27
478.13	8086.2
478.485	8133.72
478.839	8221.97
479.194	8578.92
479.549	8846.57
479.903	8989.46
480.258	8892.5
480.612	8987.14
480.967	9318.47
481.321	9458.77
481.675	9269.61
482.03	8949.24
482.384	8732.45
482.738	8748.21
483.093	8879.09
483.447	9166.43
483.801	9576.85
484.155	10053.26
484.509	11201.08
484.863	22055.9
485.217	31038.67
485.571	34719.12
485.925	26423.74
486.279	18882.46
486.632	14467.63
486.986	11929.35
487.34	10352.36
487.694	9566.84
488.047	9205.55
488.401	9153.3
488.754	9009.31
489.108	8895.34
489.461	8778.94
489.815	8624.69
490.168	8578.14
490.522	8690.08
490.875	8750.27
491.228	8654.93
491.581	8692.15
491.935	8716.18
492.288	8644.34
492.641	8757.76
492.994	8725.48
493.347	8894.05
493.7	8899.47
494.053	8911.59
494.406	8863.86
494.759	8452.11
495.111	8587.45
495.464	9228.96
495.817	9742.51
496.169	9595.84
496.522	9100.51
496.875	8351.35
497.227	8110.62
497.58	7995.26
497.932	8070.62
498.285	8175.52
498.637	8487.06
498.989	8759.83
499.342	8830.83
499.694	8627.27
500.046	8374.41
500.398	8532.09
500.751	8807.08
501.103	8803.73
501.455	8859.48
501.807	8847.09
502.159	8835.22
502.511	8854.83
502.862	8855.35
503.214	8662.17
503.566	8380.37
503.918	8109.32
504.27	8101.01
504.621	8046.46
504.973	8025.67
505.324	7982.26
505.676	8171.37
506.027	8354.98
506.379	8045.68
506.73	7656.55
507.082	7526.37
507.433	7787.11
507.784	8024.89
508.136	7846.99
508.487	7751.68
508.838	7562.91
509.189	7467.09
509.54	7587.7
509.891	7563.95
510.242	7503.39
510.593	7462.13
510.944	7433.39
511.295	7174.68
511.646	6983.05
511.996	6983.57
512.347	7003.78
512.698	7076.42
513.049	7033.68
513.399	6985.94
513.75	7009.02
514.1	6888.02
514.451	6669.01
514.801	6494.89
515.152	6549.19
515.502	6739.53
515.852	6879.62
516.202	6977.28
516.553	6854.92
516.903	6621.63
517.253	6438.72
517.603	6327.59
517.953	6397.03
518.303	6577.38
518.653	6736.11
519.003	6826.28
519.353	6485.4
519.703	6183.29
520.052	6012.8
520.402	5929.04
520.752	6120.58
521.102	6142.02
521.451	5936.73
521.801	5949.46
522.15	6010.69
522.5	6117.94
522.849	6145.19
523.199	6255.73
523.548	6342.91
523.897	6348.19
524.246	6175.09
524.596	6005.12
524.945	5927.19
525.294	6012.8
525.643	5943.36
525.992	5985.78
526.341	6062.07
526.69	6030.29
527.039	5977.56
527.388	5840.43
527.737	5942.04
528.086	6375.65
528.434	6788.96
528.783	6711.38
529.132	6428.69
529.48	6237.23
529.829	6112.91
530.177	6002.74
530.526	5953.7
530.874	6018.63
531.223	6019.96
531.571	5967.75
531.919	6030.03
532.268	6282.42
532.616	6644.8
532.964	6983.84
533.312	7015.84
533.66	6998.53
534.008	7011.91
534.356	6999.84
534.704	6930.82
535.052	6777.13
535.4	6585.28
535.748	6255.47
536.095	5915.52
536.443	5846.53
536.791	5978.62
537.139	6264.45
537.486	6525.47
537.834	6704.8
538.181	6731.11
538.529	6819.19
538.876	6772.66
539.223	6675.33
539.571	6372.74
539.918	6290.61
540.265	6448.21
540.613	6646.11
540.96	6679.28
541.307	6593.97
541.654	6538.91
542.001	6554.72
542.348	6557.62
542.695	6507.54
543.042	6658.49
543.388	6800.79
543.735	6892.49
544.082	6959.96
544.429	6882.77
544.775	6732.42
545.122	6434.49
545.469	6107.61
545.815	6104.44
546.162	6131.96
546.508	6275.29
546.854	6690.86
547.201	7236.47
547.547	7485.9
547.893	7405.17
548.24	6898.79
548.586	6252.56
548.932	5977.03
549.278	5801.4
549.624	5892.7
549.97	5861.66
550.316	5615.87
550.662	5479.81
551.008	5736.85
551.353	6393.86
551.699	6948.15
552.045	6874.36
552.391	6542.6
552.736	6383.3
553.082	6320.2
553.427	6221.37
553.773	5908.62
554.118	5749.07
554.464	5909.95
554.809	6206.29
555.154	6648.48
555.5	6708.75
555.845	6394.65
556.19	6030.03
556.535	5745.62
556.88	5776.17
557.225	5858.21
557.57	5704.16
557.915	5499.52
558.26	5299.77
558.605	5273.87
558.95	5390.76
559.295	5821.58
559.639	6345.55
559.984	6890.65
560.329	7155.04
560.673	7096.87
561.018	6869.9
561.362	6509.65
561.707	6167.94
562.051	6155.78
562.395	6209.73
562.74	6515.19
563.084	6639.27
563.428	6991.18
563.772	7048.63
564.117	7052.04
564.461	7135.65
564.805	6988.3
565.149	7027.65
565.493	7068.55
565.836	7272.33
566.18	7429.48
566.524	8200.43
566.868	8881.41
567.212	9333.63
567.555	9581.73
567.899	10242.35
568.242	11127.99
568.586	12488.69
568.929	14085.42
569.273	16081.38
569.616	16650.56
569.96	17099.16
570.303	17879.11
570.646	18624.72
570.989	19656.76
571.333	19838.82
571.676	18985.67
572.019	16525.75
572.362	16641.9
572.705	18977.79
573.048	21582.5
573.391	23124.56
573.733	24279.56
574.076	24990.91
574.419	24468.74
574.762	22119.97
575.104	19790.35
575.447	18701.36
575.789	20364.34
576.132	23305.91
576.474	24230.98
576.817	27468.78
577.159	31413.16
577.501	33044.28
577.844	30114.34
578.186	24263.86
578.528	20903.32
578.87	20244.36
579.212	20773.58
579.554	22669.56
579.896	22604.52
580.238	24259.19
580.58	31077.08
580.922	36550.43
581.264	40339.54
581.606	36237.98
581.947	31619.03
582.289	26103.64
582.631	20830.83
582.972	17609
583.314	17142.93
583.655	17707.78
583.997	20539.85
584.338	24211.1
584.679	27179.72
585.021	27448.89
585.362	24259.44
585.703	21153.42
586.044	19446.1
586.385	20818.79
586.726	22981.25
587.067	23067.87
587.408	20794.22
587.749	18986.16
588.09	17287.3
588.431	15780.91
588.772	14109.9
589.113	14058.68
589.453	14320.66
589.794	13860.95
590.134	12775.27
590.475	11885.9
590.815	11759.02
591.156	11826.26
591.496	12075.28
591.837	15289.47
592.177	18896.75
592.517	21959.41
592.857	21132.78
593.198	18884.92
593.538	15982.66
593.878	14168.35
594.218	14110.15
594.558	15379.72
594.898	15285.25
595.237	14057.19
595.577	12424.98
595.917	11059.44
596.257	11245.97
596.596	11772.93
596.936	12629.64
597.276	11978.09
597.615	11842.44
597.955	14219.55
598.294	16851.55
598.633	17869.24
598.973	16923.05
599.312	16367.45
599.651	16393.97
599.991	15868.03
600.33	15331.49
600.669	14463.38
601.008	13766.64
601.347	12651.28
601.686	12870.53
602.025	12931.58
602.364	13863.45
602.702	14599.05
603.041	14849.73
603.38	13950.96
603.719	12777.28
604.057	11791.63
604.396	11587.51
604.734	12091.43
605.073	14126.14
605.411	14555.66
605.75	14198.07
606.088	12693.79
606.426	12712.15
606.764	12993.62
607.103	12771.24
607.441	11877.06
607.779	11228.47
608.117	11238.37
608.455	10741.44
608.793	10087.01
609.131	10928.61
609.469	11781.78
609.806	12133.32
610.144	10909.29
610.482	10111.29
610.819	10182.33
611.157	10005.95
611.495	9511.92
611.832	9242.34
612.17	9247.49
612.507	9501.39
612.844	9398.66
613.182	9383.5
613.519	9449.52
613.856	9499.34
614.193	9617.13
614.53	10012.09
614.867	10167.77
615.205	9641.5
615.541	9024
615.878	8104.64
616.215	8002.8
616.552	7963.54
616.889	8190.57
617.226	8437.87
617.562	8237.79
617.899	7493.21
618.235	6759.51
618.572	6089.88
618.908	6231.94
619.245	6715.85
619.581	7145.34
619.918	6691.65
620.254	5417.97
620.59	4824.36
620.926	5199.06
621.262	5792.11
621.599	6051.48
621.935	6077.7
622.271	6472.21
622.606	6842.58
622.942	6860.97
623.278	6350.83
623.614	6660.33
623.95	6844.15
624.285	6845.2
624.621	6302.5
624.957	5795.82
625.292	5481.14
625.628	5190.24
625.963	4955.24
626.299	5121.78
626.634	5262.12
626.969	5225.25
627.304	4766.36
627.64	4108
627.975	3955.49
628.31	4237.27
628.645	4636
628.98	4551.77
629.315	4461.26
629.65	4312.09
629.985	4263.21
630.319	4099.07
630.654	3901.25
630.989	3922.68
631.323	3763.31
631.658	3668.96
631.993	3322.7
632.327	3204.58
632.662	3230.02
632.996	3319.15
633.33	3475.56
633.665	3386.33
633.999	3150.38
634.333	3116.42
634.667	3031.73
635.001	3160.24
635.335	3366.13
635.669	3598.46
636.003	3667.33
636.337	3441.74
636.671	3192.26
637.005	2943.93
637.339	2856.58
637.672	2979.88
638.006	3191.17
638.339	3170.91
638.673	3088.75
639.006	2873.34
639.34	2823.59
639.673	2735.84
640.007	2718.77
640.34	2678.56
640.673	2624.28
641.006	2583.47
641.34	2478.87
641.673	2423.9
642.006	2318.81
642.339	2359.75
642.672	2425.83
643.004	2424.45
643.337	2312.16
643.67	2265.38
644.003	2268.42
644.336	2314.1
644.668	2303.03
645.001	2274.24
645.333	2212.46
645.666	2134.83
645.998	2036.28
646.331	1981.26
646.663	1978.2
646.995	2140.1
647.327	2396.81
647.66	2765.01
647.992	2947.5
648.324	3041.87
648.656	2929.65
648.988	2815.89
649.32	2541.54
649.652	2314.1
649.983	2148.97
650.315	2108.75
650.647	2135.94
650.979	2268.42
651.31	2443.24
651.642	2614.63
651.973	2703.62
652.305	2708.86
652.636	2663.69
652.967	2572.16
653.299	2484.12
653.63	2433.57
653.961	2588.99
654.292	3592.47
654.623	17739.38
654.955	68924.87
655.286	68924.87
655.616	68924.87
655.947	68924.87
656.278	68924.87
656.609	37561.81
656.94	20334.59
657.27	12893.14
657.601	9092.27
657.932	6382.25
658.262	4381.99
658.593	3192.81
658.923	2444.62
659.254	2108.19
659.584	1893.37
659.914	1773.33
660.244	1724.53
660.575	1694.96
660.905	1709.19
661.235	1731.78
661.565	1761.62
661.895	1806.21
662.225	1771.93
662.555	1730.39
662.884	1725.37
663.214	1781.69
663.544	1842.15
663.873	1860.25
664.203	1928.15
664.533	1980.98
664.862	2021.84
665.192	2005.44
665.521	1828.5
665.85	1675.7
666.18	1581.3
666.509	1553.63
666.838	1603.93
667.167	1643.04
667.496	1665.93
667.825	1678.49
668.154	1622.65
668.483	1628.79
668.812	1687.7
669.141	1703.61
669.47	1761.06
669.798	1785.03
670.127	1743.22
670.456	1818.19
670.784	2140.1
671.113	2532.71
671.441	2895.05
671.77	2944.2
672.098	2769.41
672.426	2427.77
672.755	2073.77
673.083	1935.1
673.411	1890.87
673.739	1857.74
674.067	1821.53
674.395	1722.3
674.723	1753.81
675.051	1795.34
675.379	1851.61
675.706	1849.39
676.034	1747.96
676.362	1700.82
676.689	1833.51
677.017	2047.39
677.344	2249.03
677.672	2336.79
677.999	2235.46
678.327	2226.87
678.654	2446.83
678.981	2613.25
679.308	2652.66
679.636	2479.15
679.963	2255.96
680.29	2167.55
680.617	2192.51
680.944	2258.73
681.271	2250.7
681.597	2065.72
681.924	1852.73
682.251	1743.77
682.578	1840.2
682.904	2101.25
683.231	2258.45
683.557	2374.41
683.884	2500.96
684.21	2627.03
684.536	2829.09
684.863	2946.95
685.189	2926.36
685.515	2719.04
685.841	2465.89
686.167	2411.46
686.493	2496.55
686.819	2491.02
687.145	2362.8
687.471	2087.37
687.797	1903.67
688.123	1887.53
688.448	1933.16
688.774	2095.15
689.1	2087.65
689.425	2007.11
689.751	1918.41
690.076	1981.54
690.402	2257.34
690.727	2442.41
691.052	2430.53
691.377	2282.82
691.703	2215.51
692.028	2135.94
692.353	2220.78
692.678	2209.69
693.003	2153.41
693.328	1911.18
693.652	1683.24
693.977	1691.05
694.302	1835.18
694.627	1964.3
694.951	1895.04
695.276	1702.77
695.6	1522.87
695.925	1718.95
696.249	2199.16
696.574	2582.37
696.898	2629.79
697.222	2358.09
697.546	2155.35
697.871	2034.34
698.195	1984.32
698.519	1895.87
698.843	1863.03
699.167	1747.68
699.491	1617.06
699.814	1548.04
700.138	1558.66
700.462	1538.53
700.786	1533.5
701.109	1553.35
701.433	1710.58
701.756	1799.8
702.08	1845.21
702.403	1808.72
702.726	1692.72
703.05	1593.6
703.373	1579.34
703.696	1530.14
704.019	1480.34
704.342	1402.78
704.665	1337.2
704.988	1266.51
705.311	1366.36
705.634	1600.86
705.957	1920.36
706.28	2254.57
706.602	2460.37
706.925	2343.99
707.247	2263.16
707.57	2095.15
707.892	1933.71
708.215	1799.25
708.537	1667.89
708.859	1593.6
709.182	1633.26
709.504	1740.43
709.826	1786.7
710.148	1782.8
710.47	1754.93
710.792	1653.37
711.114	1514.48
711.436	1469.71
711.758	1493.22
712.079	1465.23
712.401	1595.27
712.723	1740.43
713.044	1898.1
713.366	1969.86
713.687	2029.89
714.009	1926.2
714.33	1842.7
714.652	1749.63
714.973	1659.79
715.294	1543.28
715.615	1403.06
715.936	1305.23
716.257	1271.28
716.578	1291.76
716.899	1285.59
717.22	1447.03
717.541	1500.77
717.862	1585.77
718.182	1597.23
718.503	1594.43
718.824	1592.2
719.144	1551.11
719.465	1521.75
719.785	1501.61
720.105	1565.93
720.426	1597.51
720.746	1561.18
721.066	1545.8
721.386	1506.09
721.706	1480.9
722.026	1421.83
722.346	1375.6
722.666	1405.03
722.986	1424.35
723.306	1448.99
723.626	1422.67
723.946	1390.46
724.265	1500.49
724.585	1610.92
724.904	1751.58
725.224	1729.55
725.543	1683.79
725.863	1674.31
726.182	1593.32
726.501	1539.37
726.82	1504.13
727.14	1543.56
727.459	1628.52
727.778	1669.84
728.097	1695.79
728.416	1669.84
728.734	1759.11
729.053	1836.58
729.372	1848.55
729.691	1924.53
730.009	2075.71
730.328	2200.82
730.647	2238.79
730.965	2120.12
731.283	2027.11
731.602	1927.32
731.92	1914.8
732.238	1972.64
732.557	2078.49
732.875	2124.56
733.193	2304.41
733.511	2529.12
733.829	2451.25
734.147	2228.53
734.465	2021.28
734.782	1925.09
735.1	2060.72
735.418	2099.31
735.735	2064.33
736.053	2069.05
736.371	2036.84
736.688	1958.74
737.005	1812.9
737.323	1685.19
737.64	1634.38
737.957	1728.16
738.274	1948.18
738.592	2093.76
738.909	2147.31
739.226	1862.47
739.543	1643.87
739.86	1503.29
740.176	1407.27
740.493	1322.06
740.81	1266.51
741.127	1305.79
741.443	1370.28
741.76	1463.83
742.076	1505.53
742.393	1423.79
742.709	1257.24
743.025	1233.94
743.342	1221.31
743.658	1242.37
743.974	1303.26
744.29	1316.17
744.606	1331.03
744.922	1299.06
745.238	1258.09
745.554	1244.61
745.87	1225.8
746.186	1302.42
746.501	1369.16
746.817	1395.5
747.132	1289.52
747.448	1158.65
747.763	1120.13
748.079	1227.76
748.394	1347.29
748.71	1532.66
749.025	1689.38
749.34	1766.36
749.655	1721.74
749.97	1677.1
750.285	1600.86
750.6	1641.36
750.915	1708.35
751.23	1718.67
751.545	1620.97
751.859	1504.97
752.174	1430.51
752.489	1528.18
752.803	1669.28
753.118	1748.23
753.432	1691.33
753.747	1588.85
754.061	1579.06
754.375	1732.62
754.689	1857.18
755.004	1888.08
755.318	1945.39
755.632	2044.61
755.946	2171.16
756.26	2280.33
756.573	2524.15
756.887	2670.57
757.201	2650.46
757.515	2333.75
757.828	2068.22
758.142	1980.43
758.455	2154.52
758.769	2413.95
759.082	2513.11
759.396	2658.45
759.709	2659
760.022	2665.89
760.335	2524.43
760.648	2267.87
760.962	1970.98
761.275	1753.25
761.587	1687.42
761.9	1661.19
762.213	1744.33
762.526	1855.79
762.839	1871.1
763.151	1979.59
763.464	2125.39
763.776	2406.48
764.089	2617.11
764.401	2519.18
764.714	2301.65
765.026	2067.39
765.338	1822.09
765.65	1594.15
765.962	1456.83
766.275	1358.23
766.587	1328.23
766.898	1369.72
767.21	1504.13
767.522	1718.67
767.834	1907.28
768.146	1886.41
768.457	1780.02
768.769	1630.47
769.08	1530.98
769.392	1594.71
769.703	1752.42
770.015	1890.03
770.326	1943.17
770.637	1846.32
770.948	1631.87
771.26	1475.31
771.571	1420.43
771.882	1433.31
772.193	1458.79
772.504	1417.35
772.814	1320.37
773.125	1288.96
773.436	1254.16
773.747	1171.86
774.057	1176.92
774.368	1140.1
774.678	1115.07
774.989	1039.94
775.299	1056.83
775.609	1018.82
775.919	1053.45
776.23	1037.69
776.54	1019.95
776.85	999.1
777.16	1065.83
777.47	1138.13
777.78	1227.2
778.089	1332.99
778.399	1380.65
778.709	1341.13
779.019	1227.48
779.328	1077.94
779.638	1063.3
779.947	1187.88
780.257	1346.17
780.566	1514.48
780.875	1474.75
781.185	1366.92
781.494	1323.74
781.803	1249.95
782.112	1247.98
782.421	1238.43
782.73	1288.96
783.039	1213.16
783.348	1183.94
783.656	1075.68
783.965	1011.78
784.274	1070.34
784.582	1086.94
784.891	1130.82
785.199	1128.85
785.508	1089.47
785.816	1052.89
786.124	1069.21
786.432	1111.13
786.741	1217.37
787.049	1218.5
787.357	1237.87
787.665	1199.96
787.973	1287.27
788.281	1184.79
788.588	1141.78
788.896	1006.71
789.204	953.17
789.511	934.85
789.819	917.08
790.126	896.21
790.434	892.54
790.741	900.16
791.049	916.52
791.356	862.35
791.663	862.07
791.97	868.56
792.277	888.03
792.584	882.95
792.891	1054.58
793.198	1207.82
793.505	1274.08
793.812	1264.54
794.119	1210.63
794.425	1120.41
794.732	1121.82
795.038	976.56
795.345	856.99
795.651	791.75
795.958	749.65
796.264	817.46
796.57	863.48
796.876	884.92
797.183	851.62
797.489	852.75
797.795	818.87
798.101	838.35
798.406	831.58
798.712	802.49
799.018	787.52
799.324	757.28
799.629	754.45
799.935	743.71
800.24	726.18
800.546	727.03
800.851	722.79
801.157	693.66
801.462	659.42
801.767	669.04
802.072	679.51
802.377	745.69
802.682	782.71
802.987	734.66
803.292	722.79
803.597	717.98
803.902	726.46
804.207	708.08
804.511	714.3
804.816	773.39
805.12	843.44
805.425	914.26
805.729	954.3
806.034	894.8
806.338	826.21
806.642	796.56
806.946	792.88
807.251	799.38
807.555	818.31
807.859	804.47
808.162	799.95
808.466	767.45
808.77	734.66
809.074	742.3
809.378	714.3
809.681	694.79
809.985	684.04
810.288	730.42
810.592	707.23
810.895	671.3
811.198	654.04
811.502	612.98
811.805	609.3
812.108	609.58
812.411	644.98
812.714	702.42
813.017	760.67
813.32	790.91
813.623	768.87
813.926	699.31
814.228	664.23
814.531	631.96
814.833	640.17
815.136	635.07
815.438	635.92
815.741	594.29
816.043	615.82
816.345	651.21
816.648	628.84
816.95	622.9
817.252	624.88
817.554	624.03
817.856	584.09
818.158	592.87
818.46	564.54
818.761	581.54
819.063	583.81
819.365	625.73
819.666	618.08
819.968	659.98
820.269	686.3
820.571	689.13
820.872	684.32
821.173	633.37
821.475	594.01
821.776	594.57
822.077	569.92
822.378	595.42
822.679	595.99
822.98	578.42
823.281	562.55
823.581	569.64
823.882	570.77
824.183	566.24
824.483	602.5
824.784	618.93
825.084	624.31
825.385	616.1
825.685	619.78
825.985	624.88
826.286	576.44
826.586	615.53
826.886	595.42
827.186	632.52
827.486	620.35
827.786	591.74
828.086	588.62
828.386	562.27
828.685	606.75
828.985	609.87
829.285	573.04
829.584	539.31
829.884	569.92
830.183	536.76
830.482	529.95
830.782	510.1
831.081	526.27
831.38	530.24
831.679	513.5
831.978	539.88
832.277	536.19
832.576	575.59
832.875	555.75
833.174	587.21
833.472	559.15
833.771	528.53
834.07	567.37
834.368	565.67
834.667	540.73
834.965	520.31
835.263	535.62
835.562	563.97
835.86	514.92
836.158	529.1
836.456	520.31
836.754	487.12
837.052	488.54
837.35	523.71
837.648	524.28
837.946	516.34
838.243	484.85
838.541	549.51
838.839	491.38
839.136	535.06
839.434	509.25
839.731	509.25
840.028	504.14
840.326	561.42
840.623	517.19
840.92	519.18
841.217	527.12
841.514	497.9
841.811	496.2
842.108	509.82
842.405	496.49
842.701	491.38
842.998	532.5
843.295	517.76
843.591	502.73
843.888	480.31
844.184	497.05
844.481	499.04
844.777	475.49
845.073	491.38
845.369	517.19
845.665	492.51
845.962	499.04
846.258	475.49
846.553	477.76
846.849	463.29
847.145	488.26
847.441	481.16
847.737	525.98
848.032	503.58
848.328	512.37
848.623	462.43
848.919	507.83
849.214	465.84
849.509	472.94
849.805	480.03
850.1	482.58
850.395	489.39
850.69	485.14
850.985	469.25
851.28	477.76
851.575	474.64
851.869	471.8
852.164	504.71
852.459	500.46
852.753	515.21
853.048	517.76
853.342	544.41
853.637	537.32
853.931	544.41
854.225	544.13
854.52	507.55
854.814	546.11
855.108	538.74
855.402	513.5
855.696	521.16
855.99	529.38
856.283	524
856.577	498.19
856.871	504.14
857.164	520.03
857.458	496.49
857.751	494.22
858.045	499.89
858.338	523.71
858.632	496.49
858.925	439.73
859.218	513.5
859.511	509.82
859.804	482.87
860.097	475.77
860.39	472.94
860.683	502.73
860.976	483.43
861.268	515.49
861.561	502.16
861.854	480.03
862.146	451.37
862.439	494.78
862.731	485.14
863.023	483.43
863.316	476.06
863.608	503.58
863.9	493.93
864.192	498.19
864.484	497.05
864.776	486.56
865.068	485.42
865.36	480.31
865.651	480.88
865.943	478.89
866.235	458.75
866.526	491.38
866.818	484.85
867.109	464.99
867.4	487.41
867.692	486.56
867.983	475.77
868.274	472.94
868.565	482.02
868.856	461.58
869.147	473.5
869.438	476.62
869.729	467.83
870.02	474.35
870.31	476.62
870.601	477.48
870.892	474.35
871.182	494.5
871.473	470.95
871.763	480.6
872.053	455.34
872.343	489.68
872.634	487.12
872.924	482.87
873.214	483.43
873.504	468.39
873.794	463.29
874.084	454.2
874.373	458.75
874.663	463.57
874.953	501.31
875.242	487.69
875.532	465.56
875.821	469.25
876.111	464.42
876.4	488.54
876.689	476.91
876.978	476.91
877.268	459.88
877.557	484.57
877.846	447.11
878.134	459.88
878.423	459.88
878.712	459.88
