Data from FLMS007011_11-14-43-540.txt Node
Date: Thu Apr 21 11:14:43 MDT 2016
User: lab_user
Spectrometer: FLMS00701
Autoset integration time: false
Trigger mode: 0
Integration Time (sec): 5.000000E-3
Scans to average: 10
Electric dark correction enabled: true
Nonlinearity correction enabled: true
Boxcar width: 0
XAxis mode: Wavelengths
Stop averaging: false
Number of Pixels in Spectrum: 2048
>>>>>Begin Spectral Data<<<<<
178.41	29.72
178.791	29.72
179.172	29.72
179.553	-29.99
179.934	-52
180.316	-35.7
180.697	-71.73
181.078	-64.58
181.459	-54.29
181.84	-61.43
182.221	-38.85
182.602	-1.13
182.983	-13.13
183.364	39.43
183.744	37.72
184.125	73.69
184.506	87.1
184.887	95.37
185.268	156.4
185.648	191.74
186.029	179.2
186.41	189.46
186.791	234.75
187.171	234.46
187.552	295.37
187.932	326.65
188.313	356.79
188.694	374.7
189.074	360.49
189.455	393.45
189.835	407.37
190.216	413.33
190.596	463.87
190.977	461.6
191.357	457.34
191.737	464.44
192.118	499.05
192.498	464.44
192.878	484.02
193.258	522.31
193.639	492.81
194.019	494.23
194.399	517.21
194.779	496.78
195.159	509.55
195.54	520.61
195.92	513.24
196.3	517.49
196.68	520.61
197.06	519.76
197.44	533.37
197.82	491.96
198.2	519.19
198.58	535.35
198.959	530.25
199.339	516.36
199.719	511.25
200.099	525.15
200.479	530.25
200.858	536.21
201.238	540.74
201.618	529.12
201.998	508.13
202.377	503.03
202.757	511.53
203.136	505.29
203.516	536.49
203.896	514.37
204.275	518.91
204.655	547.26
205.034	531.39
205.414	528.83
205.793	523.45
206.172	542.44
206.552	525.15
206.931	532.8
207.31	517.49
207.69	546.7
208.069	590.62
208.448	589.77
208.827	575.89
209.207	591.47
209.586	575.32
209.965	568.8
210.344	593.45
210.723	599.69
211.102	585.24
211.481	594.87
211.86	605.07
212.239	622.06
212.618	662.83
212.997	646.41
213.376	639.62
213.755	616.11
214.134	652.07
214.513	693.11
214.891	690.84
215.27	694.24
215.649	718.84
216.028	704.14
216.406	686.03
216.785	731.57
217.164	736.09
217.542	747.97
217.921	744.01
218.3	761.54
218.678	763.23
219.057	814.37
219.435	821.15
219.814	827.08
220.192	805.61
220.57	874.22
220.949	877.04
221.327	913.71
221.705	880.42
222.084	923.58
222.462	947.55
222.84	991.23
223.218	989.82
223.597	987.29
223.975	1007.57
224.353	1042.49
224.731	1086.96
225.109	1106.65
225.487	1091.46
225.865	1130.27
226.243	1174.41
226.621	1187.89
226.999	1204.19
227.377	1261.19
227.755	1257.26
228.133	1305.24
228.511	1336.94
228.889	1366.37
229.266	1380.66
229.644	1415.41
230.022	1437.53
230.4	1540.78
230.777	1523.16
231.155	1572.65
231.533	1586.07
231.91	1619.59
232.288	1668.46
232.665	1704.46
233.043	1742.67
233.42	1757.73
233.798	1801.77
234.175	1846.34
234.553	1861.1
234.93	1915.65
235.307	1939.01
235.685	1985.72
236.062	1998.51
236.439	2059.35
236.816	2089.89
237.194	2132.35
237.571	2181.71
237.948	2175.89
238.325	2214.69
238.702	2310.52
239.079	2291.42
239.456	2348.43
239.833	2387.42
240.21	2434.14
240.587	2440.77
240.964	2516.71
241.341	2516.99
241.718	2552.59
242.095	2563.35
242.472	2633.11
242.849	2661.5
243.225	2684.64
243.602	2764.47
243.979	2745.48
244.356	2811.51
244.732	2834.33
245.109	2915.66
245.486	2908.25
245.862	2966.73
246.239	2968.1
246.615	3060.53
246.992	3079.72
247.368	3123.01
247.745	3157.51
248.121	3191.73
248.497	3250.27
248.874	3252.46
249.25	3271.6
249.626	3328.45
250.003	3372.97
250.379	3384.98
250.755	3440.12
251.131	3533.92
251.507	3500.93
251.884	3574.78
252.26	3537.19
252.636	3644.48
253.012	3651.29
253.388	3682.58
253.764	3749.74
254.14	3762.78
254.516	3813.04
254.892	3802.18
255.268	3887.7
255.643	3900.99
256.019	3883.9
256.395	3903.71
256.771	3978.01
257.147	4006.74
257.522	3966.35
257.898	4037.35
258.274	4059.83
258.649	4087.99
259.025	4128.58
259.4	4129.94
259.776	4150.23
260.151	4167.27
260.527	4209.99
260.902	4232.96
261.278	4262.68
261.653	4247.82
262.028	4243.23
262.404	4272.13
262.779	4272.68
263.154	4328.03
263.53	4365
263.905	4346.65
264.28	4345.84
264.655	4385.24
265.03	4394.14
265.405	4422.46
265.781	4390.63
266.156	4428.93
266.531	4438.36
266.906	4428.93
267.281	4510.32
267.655	4443.49
268.03	4457.23
268.405	4465.59
268.78	4482.03
269.155	4489.03
269.53	4457.5
269.904	4513.82
270.279	4529.44
270.654	4520.01
271.029	4533.75
271.403	4560.67
271.778	4550.98
272.152	4550.44
272.527	4567.13
272.901	4585.17
273.276	4601.58
273.65	4587.05
274.025	4605.35
274.399	4528.09
274.774	4521.09
275.148	4613.96
275.522	4605.35
275.897	4574.4
276.271	4531.86
276.645	4615.57
277.019	4596.47
277.393	4646.24
277.768	4619.88
278.142	4596.2
278.516	4576.82
278.89	4639.78
279.264	4534.82
279.638	4590.82
280.012	4612.61
280.386	4562.29
280.76	4602.12
281.133	4551.79
281.507	4595.12
281.881	4604.27
282.255	4580.86
282.629	4531.86
283.002	4480.14
283.376	4541.29
283.75	4511.39
284.123	4530.52
284.497	4584.63
284.87	4497.65
285.244	4518.13
285.618	4521.09
285.991	4478.79
286.364	4459.12
286.738	4447.53
287.111	4480.41
287.485	4469.63
287.858	4428.66
288.231	4346.38
288.605	4379.03
288.978	4437.83
289.351	4335.32
289.724	4303.46
290.097	4354.75
290.47	4321.28
290.843	4291.85
291.217	4292.39
291.59	4209.72
291.963	4217.55
292.336	4168.08
292.708	4172.94
293.081	4082.57
293.454	4084.47
293.827	4100.71
294.2	4010.8
294.573	4035.45
294.945	4006.74
295.318	4006.47
295.691	3992.65
296.064	3909.95
296.436	3909.67
296.809	3917
297.181	3895.3
297.554	3849.43
297.926	3816.03
298.299	3810.06
298.671	3814.4
299.044	3813.59
299.416	3851.6
299.788	3788.05
300.161	3720.65
300.533	3786.69
300.905	3724.73
301.278	3780.45
301.65	3786.42
302.022	3755.45
302.394	3745.12
302.766	3754.36
303.138	3723.37
303.51	3725.27
303.882	3759.52
304.254	3721.74
304.626	3691.82
304.998	3750.55
305.37	3655.64
305.742	3634.96
306.114	3626.79
306.485	3633.32
306.857	3636.32
307.229	3606.92
307.601	3622.71
307.972	3579.69
308.344	3595.75
308.716	3530.1
309.087	3630.87
309.459	3606.1
309.83	3670.06
310.202	3679.31
310.573	3747.02
310.945	3777.46
311.316	3830.15
311.687	3915.1
312.059	4006.74
312.43	4127.23
312.801	4202.69
313.172	4332.89
313.544	4414.91
313.915	4553.4
314.286	4660.49
314.657	4785.44
315.028	4821.15
315.399	4953.11
315.77	4999.2
316.141	5061.59
316.512	5129.82
316.883	5161.65
317.254	5207.09
317.625	5226.87
317.996	5293.11
318.366	5257.86
318.737	5292.04
319.108	5292.84
319.478	5349.43
319.849	5388.91
320.22	5467.3
320.59	5568.24
320.961	5610.29
321.331	5754.4
321.702	5881.58
322.072	6065.27
322.443	6264.73
322.813	6384.9
323.184	6652.45
323.554	6797.65
323.924	6994.87
324.295	7100.81
324.665	7246.7
325.035	7386.11
325.405	7468.94
325.775	7573.1
326.145	7659.44
326.515	7700.63
326.886	7690.2
327.256	7693.59
327.626	7609.63
327.995	7596.58
328.365	7539.43
328.735	7576.23
329.105	7557.44
329.475	7706.1
329.845	7617.45
330.215	7716.26
330.584	7776.7
330.954	7843.36
331.324	7940.15
331.693	7959.91
332.063	7883.96
332.432	7922.2
332.802	7830.34
333.171	7835.03
333.541	7599.19
333.91	7442.03
334.28	7283.59
334.649	7041.3
335.018	6796.86
335.388	6620.59
335.757	6525.22
336.126	6375.92
336.495	6229.58
336.865	6056.79
337.234	5922.69
337.603	5813.63
337.972	5681.05
338.341	5607.37
338.71	5521.65
339.079	5324.34
339.448	5225.26
339.817	5132.77
340.186	5028.92
340.554	4909.14
340.923	4903.51
341.292	4810.68
341.661	4828.4
342.029	4762.08
342.398	4779.8
342.767	4695.98
343.135	4684.96
343.504	4591.36
343.872	4620.15
344.241	4580.59
344.609	4493.34
344.978	4474.21
345.346	4498.46
345.715	4395.22
346.083	4334.78
346.451	4446.72
346.82	4305.08
347.188	4330.73
347.556	4326.41
347.924	4296.17
348.292	4265.38
348.66	4303.73
349.028	4294.82
349.396	4338.56
349.764	4330.73
350.132	4369.59
350.5	4387.94
350.868	4418.14
351.236	4516.24
351.604	4564.71
351.972	4617.19
352.34	4584.9
352.707	4708.08
353.075	4774.7
353.443	4822.76
353.81	4875.08
354.178	4982.59
354.545	5020.36
354.913	5145.07
355.28	5179.56
355.648	5286.7
356.015	5386.25
356.383	5461.7
356.75	5532.03
357.117	5591.93
357.485	5700.99
357.852	5778.31
358.219	5817.88
358.586	5928.26
358.954	6006.46
359.321	6054.14
359.688	6177.48
360.055	6163.46
360.422	6312.02
360.789	6315.19
361.156	6385.16
361.523	6488.31
361.89	6500.18
362.256	6640.07
362.623	6622.17
362.99	6706.66
363.357	6798.18
363.724	6836.55
364.09	6883.05
364.457	6957.08
364.823	6970.47
365.19	7082.73
365.557	7212.4
365.923	7255.6
366.29	7198.53
366.656	7277.05
367.022	7463.19
367.389	7438.9
367.755	7469.2
368.121	7525.6
368.488	7551.18
368.854	7580.93
369.22	7569.45
369.586	7592.15
369.952	7610.15
370.318	7682.12
370.684	7717.3
371.051	7819.93
371.416	7778.01
371.782	7858.72
372.148	7948.21
372.514	7865.48
372.88	7948.99
373.246	7945.09
373.612	8057.64
373.977	8111.67
374.343	8219.13
374.709	8354.73
375.074	8315.6
375.44	8258.81
375.806	8263.48
376.171	8373.91
376.537	8439.96
376.902	8449.8
377.268	8589.53
377.633	8612.03
377.998	8698.11
378.364	8812.78
378.729	8823.1
379.094	8908.51
379.459	8677.43
379.825	8784.12
380.19	8690.1
380.555	8660.89
380.92	8529.78
381.285	8548.15
381.65	8647.19
382.015	8691.39
382.38	8721.1
382.745	8570.65
383.11	8625.22
383.474	8636.34
383.839	8640.73
384.204	8668.9
384.569	8612.03
384.933	8603.24
385.298	8575.31
385.663	8638.92
386.027	8641.25
386.392	8814.84
386.756	8855.36
387.121	8887.87
387.485	9049.01
387.849	9085.33
388.214	9033.55
388.578	8979.42
388.942	8815.87
389.307	8924.5
389.671	8880.65
390.035	8929.14
390.399	9006.49
390.763	9105.68
391.127	9213.28
391.492	9437.98
391.856	9702.54
392.219	9863.94
392.583	9880.58
392.947	9617.91
393.311	9435.41
393.675	9365.01
394.039	9239.27
394.403	9255.73
394.766	9198.87
395.13	9178.02
395.494	9215.34
395.857	9286.85
396.221	9386.85
396.584	9536.06
396.948	9689.21
397.311	10062.48
397.675	10165.74
398.038	10260.74
398.401	9996.76
398.765	9867.52
399.128	9631.25
399.491	9430.01
399.854	9342.13
400.218	9409.46
400.581	9349.59
400.944	9355.75
401.307	9172.36
401.67	9162.32
402.033	9137.61
402.396	9165.15
402.759	9189.61
403.122	9291.48
403.485	9335.45
403.847	9484.72
404.21	9565.83
404.573	9720.74
404.936	9804.52
405.298	9637.15
405.661	9479.33
406.023	9292.51
406.386	9115.72
406.749	9096.41
407.111	9127.82
407.473	9240.81
407.836	9453.39
408.198	9546.33
408.561	9584.56
408.923	9554.8
409.285	9521.17
409.647	9449.79
410.009	9289.42
410.372	9301.77
410.734	9214.83
411.096	9252.9
411.458	9344.44
411.82	9488.83
412.182	9606.37
412.544	9587.64
412.906	9622.02
413.267	9651
413.629	9518.86
413.991	9441.83
414.353	9462.89
414.714	9274.25
415.076	9315.14
415.438	9331.08
415.799	9375.8
416.161	9234.89
416.522	9129.37
416.884	9160.52
417.245	9098.47
417.607	9110.06
417.968	9130.66
418.329	9282.74
418.691	9278.62
419.052	9249.3
419.413	9370.66
419.774	9425.13
420.135	9828.34
420.497	10112.59
420.858	10451.59
421.219	10501.81
421.58	10341.65
421.941	10132.77
422.302	9762.51
422.662	9685.87
423.023	9568.14
423.384	9464.94
423.745	9584.05
424.106	9562.24
424.466	9753.03
424.827	9505.51
425.187	9356.78
425.548	9086.36
425.909	8988.7
426.269	9032.52
426.63	9081.21
426.99	9350.87
427.35	9315.65
427.711	9352.16
428.071	9461.61
428.431	9856.26
428.792	10483.2
429.152	11082.31
429.512	11156.18
429.872	11120.64
430.232	10866.6
430.592	10404.41
430.952	9910.53
431.312	9415.37
431.672	9077.6
432.032	9069.88
432.392	9251.1
432.752	9984.99
433.111	10452.35
433.471	10495.94
433.831	9891.59
434.19	9747.39
434.55	9752.52
434.91	9482.92
435.269	9699.72
435.629	9750.72
435.988	9803.5
436.348	9678.95
436.707	9400.21
437.066	9367.58
437.426	9440.03
437.785	9553
438.144	9576.35
438.503	9503.46
438.862	9344.96
439.222	9260.36
439.581	9133.23
439.94	9310
440.299	9889.54
440.658	10428.64
441.017	10497.47
441.376	10448.27
441.734	10180.55
442.093	10049.44
442.452	10196.9
442.811	10326.85
443.169	10275.29
443.528	10120.25
443.887	9948.15
444.245	9918.21
444.604	9702.79
444.962	9584.56
445.321	9583.54
445.679	9594.31
446.038	9760.97
446.396	9551.72
446.754	9321.82
447.112	9280.17
447.471	9202.47
447.829	9067.04
448.187	9117.52
448.545	9083.53
448.903	9085.33
449.261	9047.72
449.619	8914.96
449.977	8887.87
450.335	8639.96
450.693	8613.58
451.051	8607.12
451.409	8539.87
451.766	8534.18
452.124	8375.46
452.482	8126.99
452.839	8051.15
453.197	7986.95
453.555	7909.2
453.912	7915.7
454.27	8044.65
454.627	8304.45
454.984	8279.56
455.342	8153.47
455.699	7993.71
456.056	7876.15
456.414	8132.44
456.771	8307.04
457.128	8446.95
457.485	8559.53
457.842	8468.96
458.199	8465.33
458.556	8576.86
458.913	8568.58
459.27	8720.58
459.627	8550.48
459.984	8564.45
460.341	8688.55
460.697	8468.18
461.054	8158.66
461.411	7879.8
461.767	7561.62
462.124	7519.6
462.481	7627.62
462.837	7851.95
463.194	8183.06
463.55	8159.18
463.907	8532.37
464.263	8723.68
464.619	9117.78
464.976	9339.05
465.332	9423.59
465.688	9016.28
466.044	8508.04
466.4	8245.85
466.756	7986.17
467.112	8001.25
467.468	7927.67
467.824	7848.57
468.18	7702.19
468.536	7657.35
468.892	7449.61
469.248	7368.33
469.604	7238.84
469.959	7254.81
470.315	7246.7
470.671	7260.83
471.026	7342.71
471.382	7409.11
471.737	7602.06
472.093	7860.54
472.448	8051.41
472.804	8232.1
473.159	8343.33
473.514	8475.17
473.87	8510.89
474.225	8871.36
474.58	9314.62
474.935	9386.59
475.29	9178.02
475.645	9147.65
476	8967.31
476.355	8900.51
476.71	8891.74
477.065	9184.72
477.42	9451.85
477.775	9535.29
478.13	9503.46
478.485	9530.42
478.839	9694.59
479.194	10111.05
479.549	10497.22
479.903	10580.54
480.258	10380.69
480.612	10588.95
480.967	11037.36
481.321	11060.98
481.675	10758.5
482.03	10510.98
482.384	10259.98
482.738	10397.27
483.093	10480.4
483.447	10841.17
483.801	11442.69
484.155	11807.07
484.509	14239.04
484.863	28832.44
485.217	38266.59
485.571	40077.62
485.925	28547.83
486.279	21005.3
486.632	16817.9
486.986	13883.97
487.34	12068.48
487.694	11151.61
488.047	10893.8
488.401	10853.12
488.754	10700.99
489.108	10443.43
489.461	10271.72
489.815	10162.16
490.168	10254.36
490.522	10302.86
490.875	10312.05
491.228	10163.69
491.581	10255.13
491.935	10286.27
492.288	10206.86
492.641	10269.93
492.994	10248.49
493.347	10542.07
493.7	10549.72
494.053	10550.23
494.406	10301.33
494.759	9935.87
495.111	10215.55
495.464	10997.99
495.817	11632.32
496.169	11323.33
496.522	10454.14
496.875	9811.7
497.227	9495.5
497.58	9401.75
497.932	9598.42
498.285	9661.77
498.637	10132.52
498.989	10456.69
499.342	10432.72
499.694	10214.27
500.046	9848.06
500.398	10136.35
500.751	10370.74
501.103	10507.41
501.455	10475.04
501.807	10544.37
502.159	10518.12
502.511	10544.62
502.862	10430.42
503.214	10232.91
503.566	9816.56
503.918	9568.91
504.27	9596.37
504.621	9561.47
504.973	9458.01
505.324	9512.96
505.676	9788.39
506.027	9802.73
506.379	9329.02
506.73	9088.17
507.082	9038.96
507.433	9315.14
507.784	9505.77
508.136	9317.97
508.487	9196.04
508.838	8923.47
509.189	8919.86
509.54	9088.42
509.891	8995.41
510.242	8883.23
510.593	8927.6
510.944	8720.84
511.295	8504.16
511.646	8252.85
511.996	8342.29
512.347	8380.13
512.698	8454.98
513.049	8374.94
513.399	8275.93
513.75	8297.45
514.1	8074.79
514.451	7826.7
514.801	7735.81
515.152	7782.95
515.502	8003.07
515.852	8189.03
516.202	8265.04
516.553	8142.57
516.903	7828.26
517.253	7666.74
517.603	7585.1
517.953	7560.31
518.303	7884.48
518.653	8060.24
519.003	8009.05
519.353	7524.56
519.703	7254.29
520.052	7106.58
520.402	7144.57
520.752	7224.71
521.102	7158.19
521.451	7037.63
521.801	7054.67
522.15	7146.93
522.5	7249.05
522.849	7322.57
523.199	7392.12
523.548	7498.45
523.897	7428.45
524.246	7223.4
524.596	7096.36
524.945	7063.59
525.294	6995.66
525.643	7120.99
525.992	7136.71
526.341	7183.08
526.69	7150.6
527.039	6998.54
527.388	6900.9
527.737	7197.48
528.086	7619.02
528.434	7998.65
528.783	7836.33
529.132	7609.89
529.48	7407.02
529.829	7207.17
530.177	7096.09
530.526	7096.62
530.874	7125.97
531.223	7095.31
531.571	7113.39
531.919	7130.69
532.268	7371.47
532.616	7933.39
532.964	8206.93
533.312	8377.79
533.66	8303.93
534.008	8355.25
534.356	8297.19
534.704	8195
535.052	8048.29
535.4	7724.86
535.748	7356.57
536.095	7010.35
536.443	6998.54
536.791	7112.34
537.139	7440.72
537.486	7781.91
537.834	7941.97
538.181	8020.22
538.529	8008.27
538.876	8028.28
539.223	7876.15
539.571	7540.48
539.918	7522.47
540.265	7747.27
540.613	7980.19
540.96	7920.12
541.307	7871.73
541.654	7780.35
542.001	7874.33
542.348	7771.49
542.695	7778.01
543.042	7968.23
543.388	8088.04
543.735	8224.83
544.082	8287.6
544.429	8230.28
544.775	7983.83
545.122	7564.23
545.469	7348.2
545.815	7205.34
546.162	7298.51
546.508	7513.85
546.854	8053.49
547.201	8627.8
547.547	8928.37
547.893	8741.77
548.24	8094.01
548.586	7368.59
548.932	7130.95
549.278	6905.37
549.624	7050.21
549.97	6914.03
550.316	6664.29
550.662	6561.59
551.008	7018.48
551.353	7755.61
551.699	8275.15
552.045	8083.1
552.391	7752.22
552.736	7590.32
553.082	7507.85
553.427	7299.55
553.773	6982.28
554.118	6798.7
554.464	7026.09
554.809	7476.25
555.154	7832.95
555.5	7883.7
555.845	7498.71
556.19	7167.62
556.535	6778.98
556.88	6874.9
557.225	6958.92
557.57	6796.86
557.915	6511.51
558.26	6313.61
558.605	6290.63
558.95	6367.74
559.295	6985.43
559.639	7604.93
559.984	8201.22
560.329	8431.93
560.673	8539.61
561.018	8155.29
561.362	7741.8
561.707	7339.57
562.051	7379.05
562.395	7399.18
562.74	7760.03
563.084	7973.69
563.428	8303.15
563.772	8363.8
564.117	8397.48
564.461	8517.62
564.805	8352.92
565.149	8456.01
565.493	8411.21
565.836	8700.95
566.18	8901.8
566.524	9899.78
566.868	10604.74
567.212	11179.52
567.555	11347.41
567.899	12303.55
568.242	13360.2
568.586	15076.55
568.929	17026.22
569.273	19074.6
569.616	19884.34
569.96	20539.62
570.303	21586.2
570.646	22374.79
570.989	23655.35
571.333	23620.75
571.676	22423.39
572.019	19750.51
572.362	20467.6
572.705	23061.26
573.048	25924.72
573.391	27856.65
573.733	28846.45
574.076	29963.07
574.419	29009.68
574.762	26429.65
575.104	23728.22
575.447	22860.52
575.789	24834.61
576.132	27855.42
576.474	29184.72
576.817	33272.61
577.159	37703.38
577.501	39016.27
577.844	35372.49
578.186	29031.31
578.528	25846.92
578.87	24737.93
579.212	25429.2
579.554	27221.98
579.896	27183.42
580.238	29657.83
580.58	37687.05
580.922	43791.12
581.264	47601.18
581.606	42619.29
581.947	37753.13
582.289	31316.89
582.631	25448.84
582.972	21828.32
583.314	21015.37
583.655	21717.09
583.997	25126.62
584.338	29073.6
584.679	32479.58
585.021	32268.15
585.362	28807.13
585.703	25517.55
586.044	23984.39
586.385	25538.17
586.726	27915.12
587.067	27228.85
587.408	24818.42
587.749	22729.21
588.09	20859.84
588.431	19079.27
588.772	17299.92
589.113	17117.47
589.453	17304.12
589.794	16689.94
590.134	15286.5
590.475	14438.7
590.815	14325.66
591.156	14303.2
591.496	14761.56
591.837	18675.99
592.177	22656.57
592.517	25945.09
592.857	24675.85
593.198	22564.77
593.538	19207.32
593.878	17358
594.218	17378.27
594.558	18589.98
594.898	18177.7
595.237	16745.39
595.577	14949.11
595.917	13486
596.257	13856.71
596.596	14240.79
596.936	15089.74
597.276	14445.94
597.615	14435.21
597.955	17388.89
598.294	20099.79
598.633	20994.24
598.973	20102.5
599.312	19834.16
599.651	19730.58
599.991	19000.71
600.33	18382.15
600.669	17399.27
601.008	16597.59
601.347	15429.2
601.686	15762.8
602.025	15671.43
602.364	16796.37
602.702	17507.74
603.041	17598.39
603.38	16648.1
603.719	15429.2
604.057	14264.01
604.396	14072.94
604.734	14789.71
605.073	16971.8
605.411	17364.18
605.75	16716.18
606.088	15374.27
606.426	15365.57
606.764	15771.74
607.103	15294.71
607.441	14366.34
607.779	13670.81
608.117	13465.71
608.455	12872.55
608.793	12375.87
609.131	13382.76
609.469	14192.09
609.806	14417.74
610.144	12992.63
610.482	12313.12
610.819	12243.3
611.157	12035.67
611.495	11494.86
611.832	11230.26
612.17	11244.21
612.507	11489.04
612.844	11378.08
613.182	11276.42
613.519	11333.72
613.856	11343.86
614.193	11547.78
614.53	12061.92
614.867	12215.81
615.205	11522.97
615.541	10883.38
615.878	9858.56
616.215	9829.11
616.552	9672.28
616.889	9808.88
617.226	10150.66
617.562	9783.52
617.899	9007.52
618.235	8169.82
618.572	7454.05
618.908	7658.13
619.245	8168.78
619.581	8528.48
619.918	7878.5
620.254	6516.26
620.59	5919.77
620.926	6299.87
621.262	6953.41
621.599	7157.93
621.935	7254.81
622.271	7726.42
622.606	8108.03
622.942	8081.8
623.278	7641.71
623.614	7992.93
623.95	8175.01
624.285	8150.61
624.621	7491.14
624.957	7019.79
625.292	6619.01
625.628	6255.22
625.963	5991.62
626.299	6116.63
626.634	6261.56
626.969	6202.08
627.304	5571.97
627.64	4940.24
627.975	4758.86
628.31	5099.59
628.645	5454.77
628.98	5398.78
629.315	5294.71
629.65	5147.21
629.985	5119.66
630.319	4833.76
630.654	4698.13
630.989	4680.93
631.323	4541.56
631.658	4333.7
631.993	3992.92
632.327	3858.39
632.662	3845.63
632.996	3933.54
633.33	4088.26
633.665	3915.64
633.999	3760.07
634.333	3649.93
634.667	3655.64
635.001	3775.56
635.335	4016.22
635.669	4222.96
636.003	4268.62
636.337	4001.32
636.671	3740.5
637.005	3493.3
637.339	3437.39
637.672	3569.06
638.006	3736.42
638.339	3763.87
638.673	3646.12
639.006	3427.02
639.34	3327.08
639.673	3277.34
640.007	3258.21
640.34	3202.4
640.673	3075.61
641.006	3063.55
641.34	2960.14
641.673	2850.82
642.006	2796.38
642.339	2814.53
642.672	2828.83
643.004	2776.3
643.337	2686.01
643.67	2686.29
644.003	2699.78
644.336	2721.54
644.668	2719.06
645.001	2673.89
645.333	2617.4
645.666	2508.16
645.998	2407.05
646.331	2338.19
646.663	2353.96
646.995	2552.04
647.327	2862.09
647.66	3236.05
647.992	3481.03
648.324	3499.03
648.656	3498.21
648.988	3314.52
649.32	3026.53
649.652	2720.71
649.983	2564.18
650.315	2558.38
650.647	2560.04
650.979	2725.67
651.31	2912.64
651.642	3074.79
651.973	3121.36
652.305	3157.79
652.636	3185.71
652.967	3045.73
653.299	2929.39
653.63	2906.87
653.961	3196.11
654.292	4585.17
654.623	26772.86
654.955	68642.73
655.286	68642.73
655.616	68642.73
655.947	68642.73
656.278	68642.73
656.609	53075.5
656.94	32874.19
657.27	23435.49
657.601	17143.68
657.932	11791.9
658.262	7538.91
658.593	4914.51
658.923	3459.48
659.254	2735.3
659.584	2369.73
659.914	2189.47
660.244	2066.01
660.575	2061.85
660.905	2021.85
661.235	2054.63
661.565	2075.45
661.895	2097.38
662.225	2059.63
662.555	2035.46
662.884	2060.18
663.214	2105.15
663.544	2105.71
663.873	2124.02
664.203	2221.35
664.533	2311.9
664.862	2340.4
665.192	2299.72
665.521	2155.65
665.85	2000.18
666.18	1876.13
666.509	1849.96
666.838	1894.5
667.167	1893.94
667.496	1919.54
667.825	1922.88
668.154	1922.05
668.483	1911.19
668.812	1940.68
669.141	1999.34
669.47	2064.9
669.798	2042.13
670.127	2018.79
670.456	2137.62
670.784	2501.53
671.113	2974.68
671.441	3345.66
671.77	3404.91
672.098	3220.46
672.426	2791.43
672.755	2489.66
673.083	2330.17
673.411	2246.83
673.739	2229.1
674.067	2098.77
674.395	2064.9
674.723	2061.57
675.051	2133.18
675.379	2131.24
675.706	2082.67
676.034	2043.24
676.362	2010.46
676.689	2182.26
677.017	2421.98
677.344	2637.52
677.672	2695.38
677.999	2638.35
678.327	2664.53
678.654	2903.58
678.981	3040.79
679.308	3057.79
679.636	2949.43
679.963	2694.28
680.29	2602.79
680.617	2618.5
680.944	2650.75
681.271	2644.41
681.597	2412.86
681.924	2164.24
682.251	2095.44
682.578	2211.09
682.904	2433.31
683.231	2670.59
683.557	2819.48
683.884	2996.36
684.21	3095.61
684.536	3269.42
684.863	3435.2
685.189	3433.84
685.515	3244.81
685.841	3000.2
686.167	2921.98
686.493	2972.76
686.819	2968.92
687.145	2812.34
687.471	2475.58
687.797	2356.17
688.123	2243.51
688.448	2351.19
688.774	2449.61
689.1	2452.65
689.425	2373.32
689.751	2249.33
690.076	2394.06
690.402	2604.44
690.727	2847.8
691.052	2809.04
691.377	2747.96
691.703	2586.52
692.028	2533.28
692.353	2617.4
692.678	2634.22
693.003	2500.15
693.328	2261.24
693.652	2075.17
693.977	2029.35
694.302	2144
694.627	2269.55
694.951	2224.12
695.276	2005.74
695.6	1843
695.925	2095.99
696.249	2608.3
696.574	3032.84
696.898	3001.57
697.222	2804.91
697.546	2569.42
697.871	2358.39
698.195	2345.11
698.519	2251.54
698.843	2154.54
699.167	2078.51
699.491	1924.83
699.814	1839.38
700.138	1800.65
700.462	1776.97
700.786	1734.03
701.109	1863.04
701.433	1955.14
701.756	2079.62
702.08	2123.74
702.403	2062.68
702.726	1944.85
703.05	1870.28
703.373	1813.75
703.696	1753.27
704.019	1720.36
704.342	1643.89
704.665	1543.58
704.988	1482.6
705.311	1597.24
705.634	1843.55
705.957	2200.84
706.28	2605
706.602	2773.83
706.925	2754.29
707.247	2609.68
707.57	2434.69
707.892	2312.73
708.215	2147.05
708.537	1986
708.859	1915.37
709.182	1974.88
709.504	2022.41
709.826	2084.61
710.148	2102.66
710.47	2045.74
710.792	1904.24
711.114	1795.64
711.436	1729.57
711.758	1743.51
712.079	1723.99
712.401	1887.82
712.723	2022.41
713.044	2192.24
713.366	2329.06
713.687	2352.85
714.009	2220.24
714.33	2142.33
714.652	2047.13
714.973	1943.19
715.294	1823.78
715.615	1644.73
715.936	1562.87
716.257	1529.32
716.578	1516.17
716.899	1578.8
717.22	1674.6
717.541	1770.55
717.862	1809.85
718.182	1831.3
718.503	1840.21
718.824	1854.41
719.144	1819.32
719.465	1718.69
719.785	1762.19
720.105	1812.36
720.426	1836.87
720.746	1826.84
721.066	1825.45
721.386	1767.21
721.706	1715.62
722.026	1633.84
722.346	1612.05
722.666	1606.18
722.986	1699.72
723.306	1672.65
723.626	1619.31
723.946	1661.48
724.265	1720.36
724.585	1882.81
724.904	1994.9
725.224	2006.57
725.543	1961.54
725.863	1948.75
726.182	1925.11
726.501	1801.77
726.82	1772.51
727.14	1843.27
727.459	1950.42
727.778	1957.09
728.097	1960.15
728.416	2022.13
728.734	2046.3
729.053	2122.36
729.372	2079.89
729.691	2212.48
730.009	2389.64
730.328	2554.52
730.647	2653.78
730.965	2504.29
731.283	2363.92
731.602	2253.21
731.92	2330.17
732.238	2381.34
732.557	2433.03
732.875	2500.7
733.193	2727.59
733.511	2884.62
733.829	2856.87
734.147	2671.14
734.465	2438.83
734.782	2365.02
735.1	2401.25
735.418	2453.75
735.735	2449.06
736.053	2499.05
736.371	2427.78
736.688	2314.67
737.005	2183.37
737.323	2006.85
737.64	1953.47
737.957	2070.73
738.274	2347.6
738.592	2511.75
738.909	2475.3
739.226	2222.18
739.543	1945.41
739.86	1805.39
740.176	1662.6
740.493	1558.12
740.81	1510.02
741.127	1529.04
741.443	1624.34
741.76	1742.12
742.076	1756.61
742.393	1661.2
742.709	1524.28
743.025	1449.85
743.342	1456.01
743.658	1485.68
743.974	1564.83
744.29	1584.39
744.606	1486.8
744.922	1519.25
745.238	1476.44
745.554	1479.24
745.87	1453.49
746.186	1484.84
746.501	1540.5
746.817	1597.8
747.132	1480.08
747.448	1377.3
747.763	1365.81
748.079	1409.52
748.394	1588.3
748.71	1756.89
749.025	1950.14
749.34	2043.24
749.655	2035.46
749.97	1952.08
750.285	1923.71
750.6	1979.33
750.915	2049.63
751.23	2053.52
751.545	1927.05
751.859	1818.76
752.174	1758.85
752.489	1849.96
752.803	2000.73
753.118	2067.12
753.432	2031.85
753.747	1942.07
754.061	1932.89
754.375	2057.96
754.689	2178.94
755.004	2240.19
755.318	2322.14
755.632	2496.56
755.946	2571.07
756.26	2777.68
756.573	3036.95
756.887	3216.63
757.201	3175.31
757.515	2878.03
757.828	2565.56
758.142	2507.61
758.455	2708.6
758.769	2964.26
759.082	3094.52
759.396	3213.89
759.709	3303.86
760.022	3290.74
760.335	3066.84
760.648	2766.67
760.962	2456.79
761.275	2229.66
761.587	2177.83
761.9	2124.02
762.213	2161.19
762.526	2301.66
762.839	2286.44
763.151	2411.47
763.464	2643.59
763.776	2924.72
764.089	3115.89
764.401	2990.87
764.714	2845.6
765.026	2580.45
765.338	2269.55
765.65	2049.07
765.962	1853.58
766.275	1707.25
766.587	1645.01
766.898	1700.55
767.21	1836.03
767.522	2047.41
767.834	2224.39
768.146	2252.37
768.457	2129.29
768.769	1965.43
769.08	1918.43
769.392	1959.59
769.703	2112.09
770.015	2309.41
770.326	2327.68
770.637	2224.95
770.948	2035.46
771.26	1851.63
771.571	1804
771.882	1811.8
772.193	1784.77
772.504	1735.14
772.814	1658.69
773.125	1596.69
773.436	1542.46
773.747	1465.81
774.057	1422.41
774.368	1356
774.678	1358.52
774.989	1258.38
775.299	1237.61
775.609	1212.33
775.919	1235.36
776.23	1239.85
776.54	1230.03
776.85	1220.2
777.16	1223.57
777.47	1359.92
777.78	1414
778.089	1612.33
778.399	1627.41
778.709	1530.99
779.019	1448.17
779.328	1335.25
779.638	1294.86
779.947	1458.81
780.257	1657.29
780.566	1787.28
780.875	1769.72
781.185	1719.8
781.494	1639.7
781.803	1572.09
782.112	1536.59
782.421	1546.93
782.73	1568.46
783.039	1569.02
783.348	1451.25
783.656	1317.02
783.965	1278.87
784.274	1276.35
784.582	1348.71
784.891	1368.61
785.199	1367.49
785.508	1319.83
785.816	1279.71
786.124	1286.17
786.432	1404.2
786.741	1448.17
787.049	1499.39
787.357	1499.39
787.665	1527.92
787.973	1525.96
788.281	1461.89
788.588	1345.07
788.896	1240.7
789.204	1188.46
789.511	1148.83
789.819	1132.24
790.126	1113.68
790.434	1100.18
790.741	1114.24
791.049	1084.99
791.356	1035.73
791.663	1008.41
791.97	996.3
792.277	1001.37
792.584	1079.64
792.891	1290.66
793.198	1406.44
793.505	1557.56
793.812	1516.73
794.119	1511.42
794.425	1404.76
794.732	1322.91
795.038	1186.77
795.345	1062.75
795.651	998.84
795.958	939.37
796.264	992.36
796.57	1021.93
796.876	1087.24
797.183	1088.64
797.489	991.51
797.795	985.31
798.101	990.1
798.406	988.69
798.712	938.81
799.018	910.33
799.324	897.63
799.629	891.43
799.935	890.02
800.24	896.79
800.546	877.89
800.851	866.03
801.157	811.54
801.462	798.55
801.767	788.38
802.072	825.66
802.377	866.6
802.682	875.06
802.987	895.1
803.292	836.96
803.597	794.31
803.902	803.07
804.207	851.64
804.511	834.7
804.816	906.94
805.12	960.51
805.425	1075.14
805.729	1121.84
806.034	1040.23
806.338	979.68
806.642	979.11
806.946	944.45
807.251	975.17
807.555	992.36
807.859	968.97
808.162	944.45
808.466	947.83
808.77	854.46
809.074	869.98
809.378	811.83
809.681	831.88
809.985	829.33
810.288	821.71
810.592	807.59
810.895	782.16
811.198	751.36
811.502	704.14
811.805	701.87
812.108	734.4
812.411	755.88
812.714	834.42
813.017	877.89
813.32	898.76
813.623	879.86
813.926	821.15
814.228	794.31
814.531	753.06
814.833	734.96
815.136	695.09
815.438	710.93
815.741	731.29
816.043	738.07
816.345	750.51
816.648	738.64
816.95	762.1
817.252	707.53
817.554	694.8
817.856	684.05
818.158	689.99
818.46	646.41
818.761	682.07
819.063	671.6
819.365	698.76
819.666	711.49
819.968	763.51
820.269	803.35
820.571	748.53
820.872	745.42
821.173	706.68
821.475	677.83
821.776	682.35
822.077	686.88
822.378	655.75
822.679	692.26
822.98	664.53
823.281	679.81
823.581	663.68
823.882	632.82
824.183	651.79
824.483	643.58
824.784	661.13
825.084	681.79
825.385	688.01
825.685	689.71
825.985	646.13
826.286	691.69
826.586	724.22
826.886	717.71
827.186	691.41
827.486	671.88
827.786	661.13
828.086	632.82
828.386	662.55
828.685	681.51
828.985	648.68
829.285	641.03
829.584	648.96
829.884	638.77
830.183	585.52
830.482	573.34
830.782	569.09
831.081	566.25
831.38	576.74
831.679	579.57
831.978	565.12
832.277	598.55
832.576	616.4
832.875	615.55
833.174	583.54
833.472	609.88
833.771	607.62
834.07	587.79
834.368	608.47
834.667	620.08
834.965	616.11
835.263	605.07
835.562	542.16
835.86	589.77
836.158	561.15
836.456	535.07
836.754	538.76
837.052	528.27
837.35	531.39
837.648	540.46
837.946	516.64
838.243	537.34
838.541	526.28
838.839	539.04
839.136	545.56
839.434	549.53
839.731	583.26
840.028	535.07
840.326	562
840.623	558.32
840.92	518.06
841.217	528.55
841.514	507.56
841.811	531.95
842.108	560.02
842.405	530.53
842.701	519.76
842.998	516.36
843.295	537.62
843.591	538.76
843.888	507.85
844.184	516.64
844.481	515.22
844.777	530.53
845.073	520.04
845.369	507.28
845.665	539.61
845.962	543.29
846.258	483.17
846.553	501.04
846.849	533.65
847.145	505.86
847.441	504.73
847.737	524.01
848.032	512.95
848.328	519.19
848.623	506.71
848.919	473.8
849.214	512.39
849.509	502.46
849.805	497.07
850.1	474.37
850.395	466.71
850.69	472.38
850.985	528.83
851.28	496.22
851.575	525.15
851.869	522.88
852.164	519.48
852.459	560.87
852.753	548.11
853.048	594.3
853.342	611.3
853.637	613.57
853.931	612.15
854.225	605.07
854.52	585.52
854.814	578.72
855.108	605.35
855.402	590.9
855.696	559.17
855.99	532.8
856.283	575.04
856.577	568.24
856.871	547.26
857.164	550.95
857.458	529.68
857.751	495.65
858.045	558.6
858.338	512.95
858.632	513.8
858.925	509.83
859.218	498.77
859.511	517.77
859.804	514.94
860.097	514.65
860.39	520.89
860.683	487.14
860.976	500.47
861.268	508.7
861.561	491.96
861.854	502.74
862.146	481.75
862.439	488.84
862.731	488.27
863.023	509.83
863.316	494.23
863.608	532.24
863.9	520.61
864.192	515.51
864.484	529.4
864.776	511.82
865.068	470.68
865.36	511.53
865.651	500.19
865.943	477.49
866.235	498.49
866.526	466.14
866.818	480.05
867.109	493.38
867.4	500.19
867.692	497.64
867.983	484.02
868.274	476.92
868.565	487.99
868.856	501.61
869.147	490.83
869.438	498.2
869.729	490.26
870.02	529.4
870.31	489.98
870.601	472.67
870.892	483.73
871.182	480.05
871.473	474.65
871.763	498.77
872.053	484.59
872.343	482.03
872.634	478.63
872.924	492.25
873.214	485.15
873.504	483.17
873.794	468.41
874.084	484.87
874.373	492.53
874.663	503.59
874.953	489.98
875.242	469.55
875.532	486.86
875.821	499.05
876.111	470.11
876.4	484.87
876.689	497.07
876.978	468.98
877.268	480.05
877.557	470.96
877.846	487.42
878.134	487.42
878.423	487.42
878.712	487.42
