Data from FLMS007011_11-15-17-566.txt Node
Date: Thu Apr 21 11:15:17 MDT 2016
User: lab_user
Spectrometer: FLMS00701
Autoset integration time: false
Trigger mode: 0
Integration Time (sec): 5.000000E-3
Scans to average: 10
Electric dark correction enabled: true
Nonlinearity correction enabled: true
Boxcar width: 0
XAxis mode: Wavelengths
Stop averaging: false
Number of Pixels in Spectrum: 2048
>>>>>Begin Spectral Data<<<<<
178.41	26.77
178.791	26.77
179.172	26.77
179.553	-70.39
179.934	-54.67
180.316	-52.38
180.697	-96.71
181.078	-48.95
181.459	-59.53
181.84	-39.23
182.221	-26.37
182.602	-18.08
182.983	8.21
183.364	30.2
183.744	61.6
184.125	76.16
184.506	103.26
184.887	106.12
185.268	102.69
185.648	163.15
186.029	180.81
186.41	188.22
186.791	239.49
187.171	276.49
187.552	316.89
187.932	338.5
188.313	351.58
188.694	360.11
189.074	405
189.455	397.62
189.835	408.13
190.216	425.17
190.596	442.77
190.977	455.83
191.357	470.3
191.737	452.71
192.118	472.29
192.498	466.33
192.878	502.08
193.258	464.06
193.639	484.21
194.019	539.51
194.399	527.04
194.779	515.69
195.159	508.89
195.54	513.43
195.92	533.84
196.3	504.35
196.68	497.54
197.06	527.6
197.44	546.32
197.82	519.66
198.2	544.33
198.58	521.08
198.959	541.5
199.339	538.38
199.719	515.98
200.099	535.26
200.479	518.53
200.858	527.04
201.238	541.21
201.618	494.99
201.998	515.98
202.377	553.12
202.757	542.92
203.136	535.26
203.516	534.41
203.896	532.71
204.275	529.31
204.655	514.56
205.034	528.74
205.414	530.44
205.793	525.9
206.172	524.2
206.552	534.13
206.931	554.54
207.31	534.13
207.69	560.21
208.069	562.76
208.448	585.43
208.827	593.36
209.207	566.44
209.586	586.84
209.965	613.47
210.344	603.84
210.723	583.73
211.102	580.61
211.481	592.23
211.86	613.19
212.239	636.97
212.618	633.29
212.997	608.66
213.376	642.64
213.755	651.13
214.134	674.9
214.513	672.07
214.891	700.65
215.27	714.23
215.649	707.44
216.028	712.25
216.406	719.32
216.785	720.45
217.164	728.37
217.542	728.37
217.921	771.9
218.3	757.77
218.678	776.7
219.057	795.07
219.435	811.73
219.814	839.69
220.192	837.71
220.57	842.51
220.949	892.18
221.327	885.13
221.705	889.64
222.084	931.1
222.462	930.82
222.84	932.51
223.218	1001.56
223.597	995.93
223.975	1043.8
224.353	1060.13
224.731	1067.73
225.109	1092.49
225.487	1096.71
225.865	1160.54
226.243	1165.6
226.621	1153.23
226.999	1220.95
227.377	1212.8
227.755	1266.43
228.133	1318.05
228.511	1337.12
228.889	1357.87
229.266	1413.63
229.644	1411.39
230.022	1464.31
230.4	1501.53
230.777	1523.91
231.155	1552.99
231.533	1572
231.91	1616.43
232.288	1691.25
232.665	1662.5
233.043	1694.6
233.42	1760.98
233.798	1809.76
234.175	1864.34
234.553	1848.75
234.93	1918.61
235.307	1931.97
235.685	1978.4
236.062	2039.82
236.439	2037.32
236.816	2099.79
237.194	2120.6
237.571	2152.5
237.948	2169.14
238.325	2218.76
238.702	2259.21
239.079	2326.75
239.456	2343.08
239.833	2382.63
240.21	2359.68
240.587	2452.56
240.964	2488.74
241.341	2529.6
241.718	2573.74
242.095	2579.81
242.472	2641.84
242.849	2630.27
243.225	2750.9
243.602	2762.45
243.979	2759.98
244.356	2805.09
244.732	2840.01
245.109	2874.09
245.486	2954.28
245.862	2982.83
246.239	3035.22
246.615	2993.53
246.992	3054.14
247.368	3094.15
247.745	3152.77
248.121	3204.5
248.497	3235.96
248.874	3269.6
249.25	3285.45
249.626	3345.3
250.003	3371.51
250.379	3377.79
250.755	3404.82
251.131	3499.21
251.507	3489.39
251.884	3565.98
252.26	3570.61
252.636	3607.1
253.012	3686.84
253.388	3724.09
253.764	3712.67
254.14	3772.75
254.516	3801.82
254.892	3823
255.268	3824.9
255.643	3856.13
256.019	3898.46
256.395	3905.52
256.771	3951.35
257.147	4009.63
257.522	4015.86
257.898	4051.61
258.274	4060.55
258.649	4084.11
259.025	4124.16
259.4	4153.38
259.776	4152.03
260.151	4177.99
260.527	4228
260.902	4231.25
261.278	4276.1
261.653	4236.65
262.028	4271.23
262.404	4282.04
262.779	4329.56
263.154	4342.52
263.53	4373.82
263.905	4393.24
264.28	4381.37
264.655	4367.07
265.03	4385.42
265.405	4439.08
265.781	4393.51
266.156	4450.94
266.531	4433.15
266.906	4470.35
267.281	4521
267.655	4462
268.03	4492.18
268.405	4490.56
268.78	4504.84
269.155	4504.03
269.53	4508.34
269.904	4535.54
270.279	4521.54
270.654	4575.93
271.029	4501.07
271.403	4565.7
271.778	4567.85
272.152	4568.39
272.527	4540.93
272.901	4580.5
273.276	4593.96
273.65	4531.77
274.025	4563.54
274.399	4542.27
274.774	4599.07
275.148	4577.27
275.522	4539.85
275.897	4601.49
276.271	4578.89
276.645	4659.6
277.019	4650.99
277.393	4598
277.768	4634.58
278.142	4575.39
278.516	4571.89
278.89	4620.87
279.264	4592.07
279.638	4636.74
280.012	4621.67
280.386	4588.85
280.76	4618.98
281.133	4540.12
281.507	4565.43
281.881	4611.99
282.255	4589.65
282.629	4526.92
283.002	4536.08
283.376	4595.04
283.75	4521.81
284.123	4530.96
284.497	4554.39
284.87	4575.66
285.244	4557.08
285.618	4574.58
285.991	4515.88
286.364	4506.19
286.738	4475.47
287.111	4488.94
287.485	4469.27
287.858	4425.87
288.231	4464.15
288.605	4435.85
288.978	4423.45
289.351	4356.28
289.724	4341.17
290.097	4356.01
290.47	4251.24
290.843	4275.83
291.217	4297.16
291.59	4220.98
291.963	4200.7
292.336	4152.03
292.708	4198
293.081	4126.87
293.454	4148.24
293.827	4109.82
294.2	4078.69
294.573	4047.01
294.945	4027.78
295.318	4000.14
295.691	3980.36
296.064	3949.18
296.436	3942.13
296.809	3934
297.181	3899.55
297.554	3873.23
297.926	3886.52
298.299	3861.28
298.671	3858.3
299.044	3848.8
299.416	3837.39
299.788	3795.57
300.161	3835.22
300.533	3785.52
300.905	3821.92
301.278	3793.12
301.65	3812.41
302.022	3746.11
302.394	3762.96
302.766	3764.6
303.138	3714.31
303.51	3745.03
303.882	3687.92
304.254	3711.31
304.626	3716.21
304.998	3728.44
305.37	3644.66
305.742	3671.6
306.114	3650.11
306.485	3638.68
306.857	3652.83
307.229	3587.49
307.601	3592.12
307.972	3577.69
308.344	3557.26
308.716	3564.07
309.087	3617.45
309.459	3625.07
309.83	3653.92
310.202	3705.06
310.573	3724.64
310.945	3776.01
311.316	3821.37
311.687	3934.54
312.059	4059.74
312.43	4149.86
312.801	4191.78
313.172	4285.01
313.544	4408.61
313.915	4573.23
314.286	4670.62
314.657	4776.49
315.028	4817.57
315.399	4851.65
315.77	4965.62
316.141	5016.78
316.512	5083.45
316.883	5119.84
317.254	5179.47
317.625	5087.19
317.996	5199.25
318.366	5163.97
318.737	5211.55
319.108	5234.26
319.478	5288.48
319.849	5385.89
320.22	5486.39
320.59	5625.9
320.961	5726.41
321.331	5900.32
321.702	6022.53
322.072	6156.5
322.443	6395.63
322.813	6602.86
323.184	6811.23
323.554	6907.64
323.924	7071.63
324.295	7222.53
324.665	7324.58
325.035	7517.16
325.405	7572.49
325.775	7630.93
326.145	7694.28
326.515	7703.41
326.886	7738.58
327.256	7760.99
327.626	7677.86
327.995	7624.41
328.365	7564.92
328.735	7660.13
329.105	7692.2
329.475	7707.84
329.845	7666.91
330.215	7771.15
330.584	7847.18
330.954	7928.1
331.324	8040.93
331.693	7997.78
332.063	7970.49
332.432	8006.88
332.802	7903.65
333.171	7841.19
333.541	7589.97
333.91	7523.69
334.28	7373.21
334.649	7149.46
335.018	6821.22
335.388	6728.93
335.757	6622.61
336.126	6442.86
336.495	6347.85
336.865	6250.63
337.234	6046.38
337.603	5953.63
337.972	5836.37
338.341	5747.94
338.71	5638.94
339.079	5535.14
339.448	5445.62
339.817	5325.05
340.186	5332.53
340.554	5257.23
340.923	5180.01
341.292	5090.4
341.661	5066.32
342.029	5016.78
342.398	4936.94
342.767	4901.28
343.135	4923.53
343.504	4797.17
343.872	4790.99
344.241	4758.5
344.609	4740.5
344.978	4689.44
345.346	4630.28
345.715	4559.24
346.083	4510.23
346.451	4495.41
346.82	4420.48
347.188	4446.9
347.556	4431.53
347.924	4407.27
348.292	4319.84
348.66	4362.49
349.028	4353.04
349.396	4315.52
349.764	4373.82
350.132	4359.79
350.5	4406.46
350.868	4401.33
351.236	4429.92
351.604	4490.56
351.972	4533.12
352.34	4561.12
352.707	4652.07
353.075	4641.04
353.443	4734.86
353.81	4792.6
354.178	4845.75
354.545	4985.98
354.913	5057.75
355.28	5032.05
355.648	5192.57
356.015	5294.62
356.383	5292.49
356.75	5390.96
357.117	5515.43
357.485	5551.91
357.852	5623.78
358.219	5679.36
358.586	5708.07
358.954	5814.07
359.321	5899
359.688	5921.28
360.055	5963.97
360.422	6076.3
360.789	6132.68
361.156	6179.51
361.523	6220.5
361.89	6346
362.256	6428.09
362.623	6489.28
362.99	6563.34
363.357	6541.21
363.724	6608.91
364.09	6712.62
364.457	6739.45
364.823	6869.56
365.19	6813.6
365.557	7016.56
365.923	7003.7
366.29	7059.3
366.656	7208.91
367.022	7215.46
367.389	7253.41
367.755	7303.65
368.121	7345.5
368.488	7411.9
368.854	7462.84
369.22	7485.83
369.586	7460.49
369.952	7540.39
370.318	7484
370.684	7475.38
371.051	7743.01
371.416	7644.75
371.782	7697.67
372.148	7776.1
372.514	7770.37
372.88	7750.57
373.246	7841.45
373.612	8007.66
373.977	7980.63
374.343	8110.28
374.709	8185.05
375.074	8182.97
375.44	8175.96
375.806	8092.1
376.171	8266.25
376.537	8349.98
376.902	8291.66
377.268	8403.61
377.633	8467.06
377.998	8603.93
378.364	8771.38
378.729	8692.85
379.094	8729.02
379.459	8589.19
379.825	8575.22
380.19	8566.69
380.555	8541.59
380.92	8470.94
381.285	8474.05
381.65	8573.15
382.015	8543.66
382.38	8618.67
382.745	8505.63
383.11	8515.46
383.474	8598.24
383.839	8560.22
384.204	8596.69
384.569	8530.99
384.933	8522.71
385.298	8470.68
385.663	8506.92
386.027	8645.56
386.392	8686.39
386.756	8729.02
387.121	8889.85
387.485	9019.03
387.849	9064.38
388.214	8920.8
388.578	8896.04
388.942	8745.55
389.307	8770.09
389.671	8834.63
390.035	8915.39
390.399	8922.09
390.763	8990.68
391.127	9133.92
391.492	9397.81
391.856	9582.17
392.219	9766.01
392.583	9801.88
392.947	9507.23
393.311	9211.14
393.675	9262.08
394.039	9155.03
394.403	9224.77
394.766	9187.46
395.13	9064.12
395.494	9138.55
395.857	9178.97
396.221	9303.48
396.584	9522.63
396.948	9667.07
397.311	9970.33
397.675	10146.23
398.038	10235.12
398.401	9930.66
398.765	9699.63
399.128	9577.81
399.491	9436.09
399.854	9333.82
400.218	9332.53
400.581	9298.08
400.944	9275.19
401.307	9077.78
401.67	9165.33
402.033	9092.46
402.396	9174.08
402.759	9127.48
403.122	9261.05
403.485	9229.15
403.847	9390.62
404.21	9569.08
404.573	9682.97
404.936	9748.59
405.298	9584.99
405.661	9433.27
406.023	9207.79
406.386	9160.69
406.749	9069.53
407.111	9057.94
407.473	9325.34
407.836	9444.06
408.198	9480.01
408.561	9520.58
408.923	9537.77
409.285	9570.11
409.647	9482.32
410.009	9361.07
410.372	9302.45
410.734	9214.74
411.096	9311.45
411.458	9278.28
411.82	9376.74
412.182	9494.39
412.544	9654.51
412.906	9642.2
413.267	9670.15
413.629	9497.47
413.991	9410.4
414.353	9412.2
414.714	9220.14
415.076	9237.64
415.438	9276.74
415.799	9327.14
416.161	9197.24
416.522	9212.94
416.884	9210.11
417.245	9139.07
417.607	9110.74
417.968	9133.66
418.329	9210.88
418.691	9163.78
419.052	9237.38
419.413	9415.03
419.774	9521.35
420.135	9868.97
420.497	10085.15
420.858	10445.89
421.219	10532.81
421.58	10364.79
421.941	10015.09
422.302	9764.22
422.662	9641.68
423.023	9521.86
423.384	9497.47
423.745	9503.89
424.106	9567.29
424.466	9742.44
424.827	9568.31
425.187	9271.08
425.548	9109.2
425.909	8976.24
426.269	9033.46
426.63	9128.51
426.99	9330.99
427.35	9364.15
427.711	9325.85
428.071	9464.09
428.431	9820.06
428.792	10460.68
429.152	11080.7
429.512	11247.17
429.872	11170.56
430.232	10883.8
430.592	10409.94
430.952	9845.67
431.312	9365.69
431.672	9129.28
432.032	9016.97
432.392	9288.31
432.752	9981.84
433.111	10500.19
433.471	10439.52
433.831	9930.41
434.19	9765.24
434.55	9702.71
434.91	9474.62
435.269	9720.14
435.629	9784.2
435.988	9835.69
436.348	9643.22
436.707	9367.49
437.066	9349.76
437.426	9480.27
437.785	9541.11
438.144	9548.3
438.503	9422.74
438.862	9428.9
439.222	9267.48
439.581	9161.47
439.94	9269.02
440.299	9839.53
440.658	10388.26
441.017	10446.4
441.376	10444.87
441.734	10199.63
442.093	10130.9
442.452	10248.4
442.811	10292.31
443.169	10246.36
443.528	10031.2
443.887	10005.12
444.245	9972.88
444.604	9747.56
444.962	9598.33
445.321	9542.65
445.679	9693.73
446.038	9764.22
446.396	9548.04
446.754	9291.91
447.112	9216.28
447.471	9207.79
447.829	9024.96
448.187	9131.34
448.545	9146.53
448.903	9053.82
449.261	9060.26
449.619	8932.41
449.977	8883.66
450.335	8650.73
450.693	8576
451.051	8592.29
451.409	8499.16
451.766	8517.79
452.124	8408.53
452.482	8196.99
452.839	8082.23
453.197	7948.91
453.555	7900.79
453.912	7846.92
454.27	8053.92
454.627	8281.81
454.984	8287.25
455.342	8190.76
455.699	7931.22
456.056	7975.69
456.414	8145.08
456.771	8337.54
457.128	8497.6
457.485	8535.13
457.842	8488.8
458.199	8509.25
458.556	8675.02
458.913	8616.6
459.27	8733.41
459.627	8508.73
459.984	8625.91
460.341	8614.53
460.697	8428.74
461.054	8045.08
461.411	7820.63
461.767	7564.92
462.124	7460.75
462.481	7716.7
462.837	7883.87
463.194	8188.42
463.55	8204.25
463.907	8554.53
464.263	8753.56
464.619	9121.04
464.976	9349.24
465.332	9402.95
465.688	9082.67
466.044	8463.17
466.4	8210.22
466.756	8000.12
467.112	7948.91
467.468	7986.87
467.824	7859.67
468.18	7640.32
468.536	7617.63
468.892	7411.37
469.248	7372.95
469.604	7247.66
469.959	7233.52
470.315	7261.79
470.671	7276.7
471.026	7361.19
471.382	7423.92
471.737	7589.97
472.093	7778.18
472.448	8047.68
472.804	8255.61
473.159	8394.81
473.514	8358.53
473.87	8563.58
474.225	8931.64
474.58	9375.46
474.935	9392.42
475.29	9197.5
475.645	9084.73
476	8956.13
476.355	8874.89
476.71	8781.19
477.065	9239.7
477.42	9479.24
477.775	9568.57
478.13	9519.03
478.485	9548.81
478.839	9670.15
479.194	10181.49
479.549	10501.72
479.903	10584.03
480.258	10320.9
480.612	10548.61
480.967	10983.94
481.321	11139.85
481.675	10753.84
482.03	10428.81
482.384	10302.27
482.738	10315.54
483.093	10447.42
483.447	10847.7
483.801	11483.89
484.155	11848.43
484.509	14290.14
484.863	28932.65
485.217	38283.6
485.571	40186.02
485.925	28420.45
486.279	20775.23
486.632	16759.41
486.986	13854.88
487.34	12024.73
487.694	11228.15
488.047	10829.9
488.401	10856.34
488.754	10677.74
489.108	10457.11
489.461	10261.17
489.815	10066.74
490.168	10165.4
490.522	10257.08
490.875	10325.75
491.228	10205.24
491.581	10253
491.935	10261.17
492.288	10189.92
492.641	10358.66
492.994	10264.23
493.347	10532.56
493.7	10551.42
494.053	10522.62
494.406	10254.27
494.759	9893.04
495.111	10256.32
495.464	11050.99
495.817	11638.3
496.169	11331.61
496.522	10593.7
496.875	9771.13
497.227	9517.75
497.58	9411.17
497.932	9670.4
498.285	9741.41
498.637	10110.97
498.989	10404.58
499.342	10485.66
499.694	10085.66
500.046	9770.62
500.398	10150.32
500.751	10440.79
501.103	10467.05
501.455	10477.51
501.807	10434.42
502.159	10499.68
502.511	10552.94
502.862	10427.02
503.214	10240.49
503.566	9806.23
503.918	9626.81
504.27	9548.55
504.621	9656.56
504.973	9483.86
505.324	9537.52
505.676	9763.19
506.027	9816.22
506.379	9365.44
506.73	9060.77
507.082	9087.82
507.433	9289.85
507.784	9508
508.136	9248.96
508.487	9154.51
508.838	8927.25
509.189	8921.84
509.54	9083.44
509.891	8961.55
510.242	9051.76
510.593	8808.56
510.944	8781.97
511.295	8514.94
511.646	8258.47
511.996	8313.96
512.347	8418.89
512.698	8456.96
513.049	8316.03
513.399	8229.16
513.75	8337.02
514.1	8073.4
514.451	7814.9
514.801	7700.8
515.152	7803.96
515.502	8015.98
515.852	8253.02
516.202	8245.76
516.553	8115.22
516.903	7817.5
517.253	7603.8
517.603	7533.61
517.953	7564.14
518.303	7903.39
518.653	8107.69
519.003	7982.19
519.353	7619.97
519.703	7264.93
520.052	7099.94
520.402	7154.18
520.752	7298.68
521.102	7173.56
521.451	7030.2
521.801	7077.4
522.15	7176.7
522.5	7225.93
522.849	7258.91
523.199	7355.43
523.548	7509.33
523.897	7398.57
524.246	7226.45
524.596	7090.76
524.945	7024.16
525.294	7072.41
525.643	7123.79
525.992	7112.78
526.341	7165.44
526.69	7104.13
527.039	6947.55
527.388	6885.32
527.737	7196.61
528.086	7630.41
528.434	8023.78
528.783	7902.09
529.132	7591.54
529.48	7296.85
529.829	7242.16
530.177	7098.89
530.526	7077.4
530.874	7125.1
531.223	7071.89
531.571	7096.01
531.919	7138.2
532.268	7420.52
532.616	7954.89
532.964	8255.61
533.312	8396.1
533.66	8290.36
534.008	8297.88
534.356	8300.47
534.704	8269.1
535.052	8077.04
535.4	7743.27
535.748	7318.04
536.095	7011.57
536.443	6912.63
536.791	7117.76
537.139	7396.48
537.486	7763.59
537.834	7958.53
538.181	8086.39
538.529	8028.45
538.876	7957.23
539.223	7877.63
539.571	7552.14
539.918	7470.16
540.265	7691.42
540.613	7937.98
540.96	7895.58
541.307	7847.7
541.654	7795.37
542.001	7829.74
542.348	7843.01
542.695	7808.39
543.042	7973.61
543.388	8057.82
543.735	8210.48
544.082	8318.36
544.429	8260.02
544.775	7967.89
545.122	7541.17
545.469	7276.44
545.815	7191.37
546.162	7323.27
546.508	7565.45
546.854	8027.93
547.201	8662.36
547.547	8915.39
547.893	8733.16
548.24	8030.53
548.586	7396.48
548.932	7035.7
549.278	6893.46
549.624	6967.76
549.97	6899.24
550.316	6683.15
550.662	6543.32
551.008	6929.17
551.353	7783.91
551.699	8281.55
552.045	8057.04
552.391	7742.49
552.736	7557.36
553.082	7493.66
553.427	7353.08
553.773	6974.84
554.118	6799.4
554.464	7056.95
554.809	7492.88
555.154	7876.85
555.5	7912.23
555.845	7475.9
556.19	7084.74
556.535	6802.82
556.88	6863.78
557.225	6913.16
557.57	6741.56
557.915	6515.12
558.26	6292.39
558.605	6259.09
558.95	6412.52
559.295	7018.66
559.639	7638.49
559.984	8192.57
560.329	8437.02
560.673	8499.41
561.018	8083.27
561.362	7710.7
561.707	7332.68
562.051	7371.12
562.395	7399.87
562.74	7817.5
563.084	7967.63
563.428	8276.62
563.772	8314.99
564.117	8406.72
564.461	8458
564.805	8344.8
565.149	8419.15
565.493	8366.83
565.836	8695.95
566.18	8877.47
566.524	9845.67
566.868	10608.22
567.212	11133
567.555	11368.11
567.899	12284.81
568.242	13311.23
568.586	15014.5
568.929	16915.31
569.273	19090.77
569.616	19875.89
569.96	20498
570.303	21564.51
570.646	22312.36
570.989	23569.87
571.333	23600.06
571.676	22357.04
572.019	19710.33
572.362	20414.42
572.705	23090.38
573.048	26010.05
573.391	27818
573.733	28982.8
574.076	29860.9
574.419	28924.05
574.762	26390.29
575.104	23543.13
575.447	22779.69
575.789	24798.95
576.132	27898.09
576.474	29202.59
576.817	33145.79
577.159	37707.26
577.501	39011.23
577.844	35332.65
578.186	28883.49
578.528	25553.79
578.87	24629.15
579.212	25334.15
579.554	27281.82
579.896	27058.84
580.238	29589.38
580.58	37660.24
580.922	43870.74
581.264	47593.14
581.606	42499.42
581.947	37541.7
582.289	31127.72
582.631	25257.34
582.972	21546.83
583.314	20926.84
583.655	21658.81
583.997	25127.77
584.338	29048.93
584.679	32403.84
585.021	32155.23
585.362	28729.37
585.703	25276.48
586.044	23846.66
586.385	25518.21
586.726	27756.59
587.067	27252.1
587.408	24745.46
587.749	22631.45
588.09	20695.85
588.431	18920.57
588.772	17128.77
589.113	17064.22
589.453	17200.47
589.794	16530.39
590.134	15301.59
590.475	14350.04
590.815	14237.46
591.156	14216.73
591.496	14680.74
591.837	18727.41
592.177	22555.12
592.517	25749.15
592.857	24668.16
593.198	22421.35
593.538	19004.32
593.878	17218.02
594.218	17348.53
594.558	18505.84
594.898	18152.21
595.237	16767.58
595.577	14873.57
595.917	13404.23
596.257	13780.83
596.596	14247.44
596.936	15106.08
597.276	14277.4
597.615	14463.81
597.955	17359.4
598.294	20122.33
598.633	20976.47
598.973	20104.87
599.312	19759.04
599.651	19676.86
599.991	18856.03
600.33	18432.12
600.669	17457.5
601.008	16542.78
601.347	15349.57
601.686	15676.56
602.025	15611.24
602.364	16808.17
602.702	17383.37
603.041	17573.86
603.38	16585.62
603.719	15297.86
604.057	14267.67
604.396	14050.12
604.734	14696.69
605.073	17002.64
605.411	17250.4
605.75	16766.1
606.088	15221.01
606.426	15359.02
606.764	15718.52
607.103	15255.58
607.441	14350.79
607.779	13664.97
608.117	13523.99
608.455	12807.37
608.793	12319.34
609.131	13380.17
609.469	14233.96
609.806	14408.93
610.144	12815.42
610.482	12235.4
610.819	12225.81
611.157	11923.97
611.495	11447.42
611.832	11169.29
612.17	11183.75
612.507	11450.2
612.844	11324.26
613.182	11242.86
613.519	11270.25
613.856	11359.75
614.193	11520.61
614.53	12000.75
614.867	12122.15
615.205	11481.86
615.541	10754.35
615.878	9791.89
616.215	9760.89
616.552	9561.38
616.889	9813.4
617.226	10103.55
617.562	9706.04
617.899	8932.41
618.235	8146.63
618.572	7416.86
618.908	7628.84
619.245	8205.55
619.581	8467.58
619.918	7763.07
620.254	6411.99
620.59	5933.21
620.926	6309.82
621.262	6964.35
621.599	7167.8
621.935	7320.39
622.271	7748.48
622.606	8112.1
622.942	8057.3
623.278	7653.09
623.614	7979.07
623.95	8122.49
624.285	8095.74
624.621	7455.79
624.957	6933.37
625.292	6645.78
625.628	6231.87
625.963	6008.23
626.299	6159.41
626.634	6277.33
626.969	6195.11
627.304	5583.06
627.64	4876.87
627.975	4738.08
628.31	5077.02
628.645	5482.93
628.98	5375.75
629.315	5238.53
629.65	5106.46
629.985	5111.81
630.319	4856.75
630.654	4658.79
630.989	4660.4
631.323	4517.5
631.658	4302.83
631.993	3954.06
632.327	3864.81
632.662	3872.68
632.996	3948.1
633.33	4003.94
633.665	3966.26
633.999	3717.84
634.333	3685.75
634.667	3635.14
635.001	3733.34
635.335	3977.65
635.669	4200.43
636.003	4265.02
636.337	4045.11
636.671	3759.7
637.005	3491.85
637.339	3440.57
637.672	3564.89
638.006	3768.13
638.339	3721.92
638.673	3624.25
639.006	3386.26
639.34	3360.86
639.673	3281.08
640.007	3252.92
640.34	3160.16
640.673	3087.03
641.006	3078.26
641.34	2943.03
641.673	2847.98
642.006	2758.05
642.339	2820.77
642.672	2891.67
643.004	2792.99
643.337	2698.32
643.67	2647.9
644.003	2661.96
644.336	2657.27
644.668	2720.89
645.001	2633.3
645.333	2582.84
645.666	2496.75
645.998	2366.04
646.331	2297.97
646.663	2312.09
646.995	2510.83
647.327	2825.44
647.66	3206.69
647.992	3425.56
648.324	3486.94
648.656	3496.21
648.988	3323.99
649.32	3032.48
649.652	2742.64
649.983	2581.19
650.315	2470.24
650.647	2497.3
650.979	2668.57
651.31	2846.33
651.642	3066.75
651.973	3126.48
652.305	3150.85
652.636	3145.37
652.967	3066.2
653.299	2919.96
653.63	2948.24
653.961	3193.01
654.292	4516.15
654.623	26901.2
654.955	68647.38
655.286	68647.38
655.616	68647.38
655.947	68647.38
656.278	68647.38
656.609	51550
656.94	31986.47
657.27	22811.6
657.601	16873.99
657.932	11591.99
658.262	7405.62
658.593	4868.56
658.923	3413.28
659.254	2775.11
659.584	2383.18
659.914	2191.88
660.244	2033.98
660.575	2008.42
660.905	2006.48
661.235	2068.7
661.565	2056.2
661.895	2085.91
662.225	2059.81
662.555	1999.81
662.884	2027.31
663.214	2046.48
663.544	2142.52
663.873	2178.85
664.203	2223.47
664.533	2282.47
664.862	2351.38
665.192	2271.67
665.521	2157.49
665.85	1985.63
666.18	1861
666.509	1840.95
666.838	1852.93
667.167	1900.81
667.496	1911.38
667.825	1879.38
668.154	1884.39
668.483	1863.51
668.812	1938.92
669.141	1992.3
669.47	2070.08
669.798	2034.82
670.127	2022.59
670.456	2153.89
670.784	2521.87
671.113	2957.3
671.441	3305.13
671.77	3397.18
672.098	3200.4
672.426	2823.24
672.755	2462.5
673.083	2332.01
673.411	2279.42
673.739	2223.47
674.067	2104.23
674.395	2051.48
674.723	2069.81
675.051	2099.79
675.379	2108.11
675.706	2120.05
676.034	2070.08
676.362	1994.53
676.689	2146.4
677.017	2484.04
677.344	2658.37
677.672	2718.69
677.999	2653.41
678.327	2625.3
678.654	2840.29
678.981	3043.72
679.308	3077.71
679.636	2917.77
679.963	2688.95
680.29	2604.63
680.617	2675.46
680.944	2708.23
681.271	2696.66
681.597	2420.78
681.924	2172.19
682.251	2086.74
682.578	2188.27
682.904	2421.06
683.231	2681.52
683.557	2813.62
683.884	2994.9
684.21	3116.62
684.536	3293.93
684.863	3428.84
685.189	3432.38
685.515	3207.24
685.841	3001.21
686.167	2905.68
686.493	2950.72
686.819	2969.38
687.145	2804.82
687.471	2447.58
687.797	2306.55
688.123	2256.44
688.448	2342.8
688.774	2469.13
689.1	2469.96
689.425	2373.78
689.751	2269.18
690.076	2354.7
690.402	2593.87
690.727	2837.81
691.052	2835.89
691.377	2697.21
691.703	2542.84
692.028	2510.27
692.353	2577.88
692.678	2630.27
693.003	2521.59
693.328	2250.9
693.652	2030.09
693.977	2030.09
694.302	2188.55
694.627	2319.84
694.951	2225.69
695.276	1979.24
695.6	1841.23
695.925	2081.75
696.249	2602.42
696.574	3040.7
696.898	2994.9
697.222	2769.06
697.546	2506.13
697.871	2418.85
698.195	2363
698.519	2317.07
698.843	2180.79
699.167	2048.43
699.491	1911.94
699.814	1846.25
700.138	1805.02
700.462	1798.33
700.786	1764.89
701.109	1813.93
701.433	1964.78
701.756	2024.81
702.08	2073.14
702.403	2097.29
702.726	1978.4
703.05	1842.9
703.373	1805.58
703.696	1798.89
704.019	1764.89
704.342	1628.16
704.665	1509.64
704.988	1527.82
705.311	1617.82
705.634	1855.43
705.957	2223.19
706.28	2578.43
706.602	2783.64
706.925	2715.39
707.247	2597.73
707.57	2344.46
707.892	2297.42
708.215	2126.15
708.537	2018.42
708.859	1932.24
709.182	1937.81
709.504	2052.04
709.826	2075.36
710.148	2115.61
710.47	2017.59
710.792	1926.4
711.114	1819.23
711.436	1730.03
711.758	1713.85
712.079	1732.54
712.401	1892.46
712.723	2027.04
713.044	2209.89
713.366	2297.14
713.687	2346.68
714.009	2252
714.33	2128.92
714.652	2088.41
714.973	1985.08
715.294	1808.36
715.615	1660.27
715.936	1535.66
716.257	1517.76
716.578	1543.21
716.899	1538.73
717.22	1665.85
717.541	1718.87
717.862	1788.02
718.182	1795.27
718.503	1852.93
718.824	1858.5
719.144	1836.78
719.465	1755.96
719.785	1753.73
720.105	1813.93
720.426	1858.22
720.746	1828.98
721.066	1806.97
721.386	1789.41
721.706	1731.15
722.026	1662.5
722.346	1613.08
722.666	1648.54
722.986	1751.22
723.306	1676.18
723.626	1634.86
723.946	1634.3
724.265	1719.43
724.585	1905.82
724.904	1940.87
725.224	1975.63
725.543	1989.8
725.863	1993.14
726.182	1869.08
726.501	1779.66
726.82	1767.95
727.14	1873.25
727.459	1972.57
727.778	1973.96
728.097	1944.2
728.416	1964.23
728.734	2079.25
729.053	2168.86
729.372	2141.68
729.691	2238.71
730.009	2393.14
730.328	2516.9
730.647	2625.85
730.965	2481.28
731.283	2396.73
731.602	2283.57
731.92	2330.07
732.238	2362.72
732.557	2430.73
732.875	2543.39
733.193	2758.6
733.511	2987.76
733.829	2909.25
734.147	2649.56
734.465	2425.48
734.782	2382.08
735.1	2417.74
735.418	2471.06
735.735	2472.44
736.053	2524.9
736.371	2444.82
736.688	2312.64
737.005	2167.75
737.323	1986.19
737.64	1971.45
737.957	2055.37
738.274	2329.24
738.592	2521.04
738.909	2484.04
739.226	2209.61
739.543	1947.26
739.86	1751.22
740.176	1665.57
740.493	1547.12
740.81	1511.88
741.127	1518.87
741.443	1631.79
741.76	1728.64
742.076	1754.57
742.393	1623.13
742.709	1533.7
743.025	1456.19
743.342	1436.32
743.658	1503.21
743.974	1556.07
744.29	1571.16
744.606	1520.55
744.922	1493.42
745.238	1542.09
745.554	1465.15
745.87	1420.91
746.186	1524.47
746.501	1596.87
746.817	1582.34
747.132	1449.48
747.448	1353.38
747.763	1350.58
748.079	1431.84
748.394	1601.34
748.71	1784.68
749.025	1957.83
749.34	2066.48
749.655	2043.98
749.97	1965.62
750.285	1906.09
750.6	1966.45
750.915	2040.37
751.23	2039.54
751.545	1945.04
751.859	1811.43
752.174	1725.57
752.489	1853.21
752.803	2042.04
753.118	2118.1
753.432	2060.37
753.747	1902.48
754.061	1948.93
754.375	2092.85
754.689	2206.01
755.004	2252.28
755.318	2349.99
755.632	2516.07
755.946	2642.39
756.26	2862.82
756.573	3098.26
756.887	3233.5
757.201	3250.18
757.515	2888.93
757.828	2588.91
758.142	2482.66
758.455	2715.66
758.769	2983.37
759.082	3132.78
759.396	3271.24
759.709	3280.26
760.022	3298.3
760.335	3096.89
760.648	2783.64
760.962	2455.87
761.275	2240.09
761.587	2182.45
761.9	2105.34
762.213	2212.11
762.526	2302.12
762.839	2312.36
763.151	2400.88
763.464	2636.33
763.776	2972.95
764.089	3139.08
764.401	3048.1
764.714	2802.07
765.026	2549.74
765.338	2308.49
765.65	2094.51
765.962	1857.1
766.275	1777.15
766.587	1682.04
766.898	1731.98
767.21	1887.45
767.522	2095.9
767.834	2237.6
768.146	2279.14
768.457	2164.15
768.769	1955.05
769.08	1872.97
769.392	1980.63
769.703	2114.22
770.015	2306.27
770.326	2374.89
770.637	2240.65
770.948	2030.93
771.26	1864.9
771.571	1765.72
771.882	1791.92
772.193	1839.56
772.504	1745.93
772.814	1660.55
773.125	1594.08
773.436	1533.42
773.747	1438
774.057	1437.16
774.368	1396.54
774.678	1333.2
774.989	1276.53
775.299	1238.08
775.609	1196.51
775.919	1241.16
776.23	1253.52
776.54	1239.48
776.85	1234.99
777.16	1249.31
777.47	1343.01
777.78	1453.68
778.089	1626.76
778.399	1608.61
778.709	1570.6
779.019	1460.95
779.328	1339.37
779.638	1274.85
779.947	1472.43
780.257	1665.57
780.566	1833.16
780.875	1790.53
781.185	1706.32
781.494	1628.44
781.803	1566.13
782.112	1522.51
782.421	1567.81
782.73	1608.33
783.039	1566.69
783.348	1440.8
783.656	1274.01
783.965	1319.18
784.274	1323.66
784.582	1370.48
784.891	1388.98
785.199	1337.12
785.508	1314.41
785.816	1285.51
786.124	1323.38
786.432	1404.67
786.741	1502.93
787.049	1528.94
787.357	1484.46
787.665	1519.15
787.973	1528.94
788.281	1492.02
788.588	1353.66
788.896	1253.8
789.204	1196.79
789.511	1142.27
789.819	1112.18
790.126	1102.05
790.434	1124.55
790.741	1109.37
791.049	1100.37
791.356	1029.44
791.663	1004.38
791.97	980.99
792.277	1033.38
792.584	1099.52
792.891	1267.55
793.198	1472.99
793.505	1547.4
793.812	1499.29
794.119	1479.99
794.425	1432.68
794.732	1350.86
795.038	1186.11
795.345	1078.7
795.651	988.88
795.958	933.92
796.264	1004.38
796.57	1056.47
796.876	1102.33
797.183	1061.82
797.489	1002.4
797.795	973.1
798.101	969.72
798.406	974.51
798.712	940.97
799.018	891.33
799.324	922.92
799.629	893.31
799.935	885.69
800.24	884.84
800.546	848.72
800.851	867.35
801.157	822.46
801.462	786.31
801.767	801.56
802.072	837.99
802.377	854.08
802.682	873.28
802.987	845.05
803.292	811.17
803.597	851.83
803.902	838.28
804.207	807.78
804.511	853.8
804.816	896.69
805.12	1009.45
805.425	1097.55
805.729	1110.49
806.034	1086.58
806.338	1003.81
806.642	968.03
806.946	965.49
807.251	959.58
807.555	964.93
807.859	964.93
808.162	989.73
808.466	922.64
808.77	891.62
809.074	852.39
809.378	832.06
809.681	819.36
809.985	839.4
810.288	806.65
810.592	802.13
810.895	765.4
811.198	744.2
811.502	704.61
811.805	696.12
812.108	704.61
812.411	778.68
812.714	817.38
813.017	873.56
813.32	911.08
813.623	857.47
813.926	838.56
814.228	804.67
814.531	768.22
814.833	734.02
815.136	719.03
815.438	722.99
815.741	721.58
816.043	739.11
816.345	766.53
816.648	716.21
816.95	751.83
817.252	717.62
817.554	696.41
817.856	680.85
818.158	679.71
818.46	675.19
818.761	668.11
819.063	683.39
819.365	674.05
819.666	715.07
819.968	810.32
820.269	764.27
820.571	797.61
820.872	754.94
821.173	715.64
821.475	706.02
821.776	705.17
822.077	680
822.378	661.32
822.679	680.28
822.98	670.38
823.281	649.15
823.581	631.6
823.882	663.87
824.183	667.55
824.483	637.26
824.784	683.39
825.084	679.71
825.385	703.48
825.685	682.54
825.985	664.72
826.286	697.54
826.586	696.69
826.886	704.04
827.186	706.02
827.486	682.26
827.786	651.7
828.086	675.47
828.386	652.83
828.685	689.62
828.985	694.71
829.285	654.53
829.584	606.39
829.884	595.91
830.183	601.86
830.482	606.11
830.782	579.48
831.081	568.99
831.38	576.08
831.679	555.67
831.978	588.83
832.277	580.04
832.576	607.24
832.875	579.48
833.174	605.26
833.472	620.83
833.771	597.33
834.07	583.44
834.368	625.37
834.667	610.92
834.965	563.89
835.263	596.76
835.562	566.73
835.86	568.99
836.158	562.76
836.456	545.47
836.754	533.28
837.052	534.13
837.35	540.08
837.648	538.38
837.946	540.08
838.243	525.34
838.541	533.28
838.839	535.54
839.136	556.52
839.434	595.91
839.731	577.21
840.028	551.99
840.326	560.21
840.623	551.7
840.92	541.78
841.217	532.14
841.514	525.62
841.811	509.74
842.108	517.96
842.405	504.92
842.701	501.51
842.998	530.72
843.295	524.77
843.591	541.5
843.888	511.44
844.184	488.46
844.481	494.42
844.777	508.89
845.073	510.59
845.369	500.95
845.665	512.86
845.962	515.98
846.258	533.56
846.553	498.68
846.849	503.78
847.145	517.4
847.441	515.13
847.737	541.5
848.032	521.37
848.328	529.59
848.623	494.14
848.919	490.45
849.214	493.29
849.509	535.83
849.805	477.11
850.1	529.59
850.395	500.95
850.69	516.83
850.985	502.65
851.28	487.61
851.575	497.54
851.869	520.52
852.164	533.28
852.459	538.1
852.753	565.87
853.048	575.79
853.342	614.6
853.637	615.17
853.931	592.79
854.225	593.64
854.52	596.76
854.814	579.48
855.108	588.54
855.402	561.91
855.696	586.56
855.99	601.58
856.283	564.17
856.577	548.59
856.871	542.63
857.164	531.01
857.458	539.8
857.751	534.13
858.045	533.84
858.338	519.95
858.632	532.43
858.925	496.12
859.218	495.27
859.511	517.96
859.804	525.9
860.097	520.23
860.39	532.14
860.683	509.45
860.976	506.33
861.268	487.61
861.561	496.97
861.854	477.4
862.146	475.69
862.439	487.9
862.731	482.22
863.023	472.01
863.316	491.3
863.608	527.89
863.9	537.53
864.192	477.68
864.484	536.11
864.776	516.26
865.068	492.43
865.36	486.48
865.651	504.63
865.943	500.66
866.235	475.13
866.526	497.54
866.818	490.17
867.109	491.3
867.4	480.8
867.692	504.63
867.983	504.35
868.274	491.87
868.565	503.78
868.856	478.25
869.147	475.69
869.438	510.31
869.729	499.81
870.02	484.21
870.31	473.42
870.601	504.92
870.892	482.5
871.182	496.12
871.473	473.14
871.763	500.09
872.053	489.31
872.343	498.96
872.634	519.1
872.924	521.65
873.214	497.82
873.504	492.72
873.794	468.32
874.084	478.53
874.373	453.84
874.663	473.99
874.953	479.1
875.242	499.24
875.532	473.42
875.821	487.61
876.111	490.73
876.4	489.03
876.689	487.33
876.978	472.01
877.268	494.14
877.557	495.27
877.846	473.71
878.134	504.35
878.423	504.35
878.712	504.35
