Data from FLMS007011_12-35-24-956.txt Node
Date: Thu Apr 21 12:35:24 MDT 2016
User: lab_user
Spectrometer: FLMS00701
Autoset integration time: false
Trigger mode: 0
Integration Time (sec): 5.000000E-3
Scans to average: 10
Electric dark correction enabled: true
Nonlinearity correction enabled: true
Boxcar width: 0
XAxis mode: Wavelengths
Stop averaging: false
Number of Pixels in Spectrum: 2048
>>>>>Begin Spectral Data<<<<<
178.41	27.26
178.791	27.26
179.172	27.26
179.553	-22.16
179.934	-36.74
180.316	-78.48
180.697	-65.04
181.078	-64.47
181.459	-32.16
181.84	-46.46
182.221	-19.59
182.602	5.84
182.983	9.84
183.364	26.98
183.744	32.69
184.125	55.81
184.506	69.23
184.887	82.64
185.268	156.51
185.648	159.93
186.029	165.92
186.41	201.82
186.791	233.43
187.171	257.06
187.552	348.09
187.932	364.01
188.313	373.95
188.694	380.21
189.074	392.14
189.455	410.04
189.835	421.11
190.216	447.52
190.596	495.19
190.977	479.3
191.357	490.09
191.737	498.6
192.118	513.06
192.498	520.72
192.878	498.88
193.258	539.43
193.639	535.47
194.019	519.3
194.399	546.52
194.779	533.2
195.159	548.22
195.54	533.48
195.92	548.22
196.3	539.43
196.68	550.21
197.06	543.97
197.44	549.64
197.82	548.51
198.2	549.36
198.58	569.48
198.959	545.39
199.339	550.21
199.719	538.02
200.099	552.76
200.479	543.4
200.858	548.22
201.238	576.28
201.618	565.51
201.998	555.03
202.377	524.41
202.757	547.94
203.136	556.73
203.516	563.53
203.896	564.66
204.275	562.11
204.655	583.65
205.034	563.81
205.414	567.21
205.793	568.63
206.172	581.67
206.552	550.77
206.931	572.6
207.31	598.38
207.69	604.61
208.069	588.75
208.448	590.73
208.827	579.4
209.207	585.63
209.586	602.35
209.965	615.09
210.344	620.76
210.723	593.28
211.102	591.3
211.481	607.73
211.86	614.53
212.239	649.35
212.618	656.71
212.997	640.29
213.376	640.86
213.755	650.77
214.134	634.63
214.513	664.64
214.891	676.81
215.27	689.25
215.649	718.95
216.028	718.67
216.406	703.12
216.785	725.74
217.164	733.09
217.542	733.09
217.921	752.88
218.3	745.82
218.678	801.2
219.057	778.6
219.435	813.07
219.814	807.98
220.192	835.94
220.57	889
220.949	843.84
221.327	900.85
221.705	895.49
222.084	922.85
222.462	947.38
222.84	982.32
223.218	983.45
223.597	996.69
223.975	1007.11
224.353	1076.37
224.731	1071.03
225.109	1128.13
225.487	1126.73
225.865	1176.48
226.243	1245.58
226.621	1246.42
226.999	1270.56
227.377	1345.74
227.755	1398.71
228.133	1400.39
228.511	1418.03
228.889	1472.91
229.266	1500.33
229.644	1560.46
230.022	1636.74
230.4	1668.85
230.777	1700.38
231.155	1757
231.533	1791.85
231.91	1817.48
232.288	1849.51
232.665	1912.97
233.043	1983.61
233.42	2016.96
233.798	2091.66
234.175	2136.61
234.553	2202.89
234.93	2248.33
235.307	2301.22
235.685	2318.93
236.062	2344.94
236.439	2411.31
236.816	2497.22
237.194	2550.49
237.571	2568.7
237.948	2633.22
238.325	2705.12
238.702	2765.41
239.079	2788.51
239.456	2858.9
239.833	2903.96
240.21	2948.72
240.587	3034.32
240.964	3058.72
241.341	3142.01
241.718	3240.26
242.095	3206.61
242.472	3255.3
242.849	3305.33
243.225	3370.62
243.602	3400.92
243.979	3449.22
244.356	3531.02
244.732	3581.43
245.109	3633.43
245.486	3670.17
245.862	3777.29
246.239	3749.3
246.615	3834.06
246.992	3847.91
247.368	3888.08
247.745	3976.22
248.121	4019.85
248.497	4055.33
248.874	4067.79
249.25	4106.5
249.626	4188.46
250.003	4251.98
250.379	4313.02
250.755	4333.53
251.131	4348.65
251.507	4395.59
251.884	4496.68
252.26	4483.21
252.636	4474.86
253.012	4591.19
253.388	4640.7
253.764	4677
254.14	4697.7
254.516	4704.69
254.892	4717.32
255.268	4770.24
255.643	4817.23
256.019	4827.7
256.395	4911.39
256.771	4908.44
257.147	4924.8
257.522	4883.5
257.898	4998.23
258.274	4985.1
258.649	5043.22
259.025	5027.42
259.4	5010.01
259.776	5087.12
260.151	5129.12
260.527	5109.33
260.902	5157.21
261.278	5161.75
261.653	5184.74
262.028	5170.84
262.404	5218.69
262.779	5214.95
263.154	5279.06
263.53	5310.03
263.905	5222.16
264.28	5246.74
264.655	5257.16
265.03	5292.41
265.405	5304.16
265.781	5311.1
266.156	5299.09
266.531	5290.01
266.906	5371.41
267.281	5372.21
267.655	5300.15
268.03	5282.8
268.405	5265.71
268.78	5351.4
269.155	5297.22
269.53	5287.61
269.904	5307.36
270.279	5318.84
270.654	5336.99
271.029	5304.43
271.403	5273.45
271.778	5283.87
272.152	5248.88
272.527	5281.46
272.901	5334.59
273.276	5313.5
273.65	5264.91
274.025	5292.41
274.399	5244.6
274.774	5271.85
275.148	5283.33
275.522	5302.56
275.897	5280.66
276.271	5244.34
276.645	5268.11
277.019	5328.18
277.393	5333.52
277.768	5225.1
278.142	5232.32
278.516	5190.09
278.89	5189.56
279.264	5167.1
279.638	5188.22
280.012	5189.02
280.386	5178.06
280.76	5202.65
281.133	5173.78
281.507	5136.88
281.881	5162.55
282.255	5186.08
282.629	5134.21
283.002	5086.58
283.376	5081.23
283.75	5033.31
284.123	5065.44
284.497	5043.22
284.87	5033.31
285.244	5018.58
285.618	5029.83
285.991	4978.67
286.364	4943.83
286.738	4915.95
287.111	4949.73
287.485	4883.5
287.858	4859.09
288.231	4842.72
288.605	4820.45
288.978	4818.03
289.351	4733.98
289.724	4749.29
290.097	4756.81
290.47	4689.1
290.843	4693.4
291.217	4631.55
291.59	4556.74
291.963	4597.92
292.336	4536.54
292.708	4492.1
293.081	4499.11
293.454	4496.14
293.827	4408
294.2	4375.09
294.573	4315.45
294.945	4312.75
295.318	4301.14
295.691	4273.32
296.064	4262.79
296.436	4205.77
296.809	4214.42
297.181	4174.4
297.554	4119.22
297.926	4133.83
298.299	4042.6
298.671	4134.91
299.044	4079.43
299.416	4102.71
299.788	4079.97
300.161	3980.55
300.533	4015.78
300.905	4037.73
301.278	4001.69
301.65	4024.18
302.022	4012.8
302.394	3980.28
302.766	3947.75
303.138	3957.78
303.51	3943.41
303.882	3948.84
304.254	3958.33
304.626	4058.58
304.998	4003.05
305.37	3990.85
305.742	4014.97
306.114	4049.1
306.485	4126.25
306.857	4133.56
307.229	4156.55
307.601	4207.66
307.972	4244.14
308.344	4253.87
308.716	4292.23
309.087	4379.41
309.459	4369.7
309.83	4509.07
310.202	4545.97
310.573	4557.01
310.945	4598.73
311.316	4571.01
311.687	4672.43
312.059	4693.4
312.43	4701.46
312.801	4740.96
313.172	4706.84
313.544	4710.06
313.915	4704.42
314.286	4648.23
314.657	4653.07
315.028	4605.72
315.399	4656.56
315.77	4689.37
316.141	4724.84
316.512	4754.66
316.883	4853.19
317.254	5018.85
317.625	4996.89
317.996	5191.96
318.366	5353.27
318.737	5504.44
319.108	5663.6
319.478	5729.53
319.849	5847.45
320.22	5947.46
320.59	6057.43
320.961	6136.31
321.331	6188.96
321.702	6095.82
322.072	6146.1
322.443	6194.78
322.813	6239.2
323.184	6227.3
323.554	6227.83
323.924	6146.9
324.295	6182.35
324.665	6138.96
325.035	6158.8
325.405	6101.64
325.775	6050.54
326.145	5929.69
326.515	5916.96
326.886	5788.77
327.256	5699.23
327.626	5539.06
327.995	5392.75
328.365	5219.49
328.735	5030.37
329.105	4897.45
329.475	4798.7
329.845	4774.81
330.215	4831.18
330.584	4891.55
330.954	4962.33
331.324	4926.14
331.693	4823.13
332.063	4709.26
332.432	4597.11
332.802	4342.71
333.171	4224.15
333.541	3994.65
333.91	3911.41
334.28	3855.24
334.649	3850.35
335.018	3770.5
335.388	3753.92
335.757	3718.04
336.126	3713.14
336.495	3805
336.865	3813.96
337.234	3868.54
337.603	3965.92
337.972	4056.96
338.341	4207.39
338.71	4357.82
339.079	4471.89
339.448	4693.93
339.817	4863.38
340.186	5118.42
340.554	5259.56
340.923	5519.35
341.292	5657.48
341.661	5942.42
342.029	6177.85
342.398	6379.72
342.767	6527.43
343.135	6836.65
343.504	6996.81
343.872	7252.56
344.241	7517.09
344.609	7671.27
344.978	7813.26
345.346	8109.95
345.715	8228.05
346.083	8329.95
346.451	8592.74
346.82	8707.51
347.188	8906.55
347.556	8944.97
347.924	9251.97
348.292	9220.84
348.66	9424.21
349.028	9536.93
349.396	9644.43
349.764	9761.58
350.132	9893.48
350.5	9938.78
350.868	10035.22
351.236	10165.07
351.604	10241.18
351.972	10410.12
352.34	10291.99
352.707	10512.1
353.075	10506.24
353.443	10552.87
353.81	10574.78
354.178	10703.63
354.545	10817.11
354.913	10888.05
355.28	10903.31
355.648	11077.58
356.015	11022.22
356.383	11085.71
356.75	11103.99
357.117	11128.1
357.485	11225.03
357.852	11271.2
358.219	11310.75
358.586	11332.55
358.954	11285.9
359.321	11382.48
359.688	11394.9
360.055	11564.84
360.422	11494.71
360.789	11517.25
361.156	11503.82
361.523	11490.66
361.89	11589.65
362.256	11683.01
362.623	11602.81
362.99	11684.53
363.357	11607.11
363.724	11647.09
364.09	11686.81
364.457	11634.69
364.823	11783.4
365.19	11721.46
365.557	11836.23
365.923	11775.57
366.29	11700.97
366.656	11843.56
367.022	11946.64
367.389	11801.86
367.755	11817.78
368.121	11725.5
368.488	11869.08
368.854	11841.79
369.22	11779.61
369.586	11748.51
369.952	11694.9
370.318	11696.42
370.684	11632.92
371.051	11684.53
371.416	11613.44
371.782	11634.44
372.148	11590.91
372.514	11614.19
372.88	11570.66
373.246	11542.82
373.612	11667.83
373.977	11649.62
374.343	11756.86
374.709	11894.35
375.074	11772.03
375.44	11758.88
375.806	11697.43
376.171	11739.66
376.537	11815.25
376.902	11817.02
377.268	11959.77
377.633	11946.38
377.998	12081.7
378.364	12234.57
378.729	12191.7
379.094	12275.92
379.459	11942.59
379.825	11891.57
380.19	11948.15
380.555	11720.44
380.92	11625.08
381.285	11571.42
381.65	11685.79
382.015	11723.23
382.38	11688.83
382.745	11503.07
383.11	11501.04
383.474	11574.97
383.839	11532.18
384.204	11555.73
384.569	11424.29
384.933	11424.29
385.298	11394.9
385.663	11480.02
386.027	11456.97
386.392	11570.66
386.756	11670.11
387.121	11680.23
387.485	11797.81
387.849	11972.65
388.214	11742.19
388.578	11698.19
388.942	11478.25
389.307	11548.64
389.671	11494.2
390.035	11541.55
390.399	11575.47
390.763	11713.62
391.127	11894.6
391.492	12159.16
391.856	12334.89
392.219	12734.9
392.583	12779.4
392.947	12394.11
393.311	11970.63
393.675	11953.71
394.039	11799.84
394.403	11811.21
394.766	11769.5
395.13	11713.62
395.494	11622.04
395.857	11752.31
396.221	11892.83
396.584	12067.32
396.948	12198.26
397.311	12618.94
397.675	12922.9
398.038	12987.7
398.401	12733.39
398.765	12390.33
399.128	12145.54
399.491	11895.61
399.854	11736.63
400.218	11763.68
400.581	11633.93
400.944	11655.69
401.307	11456.21
401.67	11419.73
402.033	11336.61
402.396	11402
402.759	11396.42
403.122	11446.08
403.485	11527.88
403.847	11622.04
404.21	11919.61
404.573	11981.99
404.936	12094.57
405.298	11850.64
405.661	11586.61
406.023	11312.78
406.386	11109.83
406.749	11105.77
407.111	11058.79
407.473	11252.17
407.836	11442.79
408.198	11646.33
408.561	11592.94
408.923	11565.85
409.285	11626.85
409.647	11408.33
410.009	11310.5
410.372	11224.78
410.734	11134.45
411.096	11070.48
411.458	11272.21
411.82	11248.37
412.182	11462.54
412.544	11473.18
412.906	11535.98
413.267	11546.36
413.629	11428.6
413.991	11210.32
414.353	11192.05
414.714	11009.78
415.076	11005.71
415.438	11039.24
415.799	11124.55
416.161	11022.73
416.522	10881.19
416.884	10781.24
417.245	10822.2
417.607	10773.87
417.968	10819.4
418.329	10905.59
418.691	10897.71
419.052	10965.83
419.413	11037.21
419.774	11128.1
420.135	11636.21
420.497	12033.24
420.858	12333.38
421.219	12475.46
421.58	12290.79
421.941	11917.59
422.302	11429.61
422.662	11396.93
423.023	11211.59
423.384	11152.72
423.745	11248.12
424.106	11306.19
424.466	11360.69
424.827	11231.12
425.187	10950.83
425.548	10678.94
425.909	10561.79
426.269	10622.92
426.63	10711.27
426.99	11002.41
427.35	10903.82
427.711	10911.19
428.071	11084.69
428.431	11364.24
428.792	12165.72
429.152	12937.72
429.512	13148.12
429.872	13172.46
430.232	12854.81
430.592	12241.12
430.952	11612.68
431.312	11033.91
431.672	10495.28
432.032	10463.16
432.392	10734.94
432.752	11534.72
433.111	12245.91
433.471	12416.27
433.831	11683.52
434.19	11299.09
434.55	11296.05
434.91	11028.32
435.269	11216.66
435.629	11307.96
435.988	11463.56
436.348	11386.03
436.707	11001.65
437.066	10847.63
437.426	10997.58
437.785	11028.83
438.144	11135.97
438.503	11017.65
438.862	10907.63
439.222	10724.5
439.581	10600
439.94	10688.61
440.299	11316.07
440.658	12031.98
441.017	12256.25
441.376	12218.68
441.734	11930.98
442.093	11686.05
442.452	11753.82
442.811	12003.45
443.169	11958
443.528	11705.78
443.887	11533.96
444.245	11473.18
444.604	11294.52
444.962	11158.56
445.321	11096.12
445.679	11166.68
446.038	11320.38
446.396	11144.35
446.754	10808.46
447.112	10720.43
447.471	10501.14
447.829	10379.51
448.187	10437.66
448.545	10494
448.903	10496.81
449.261	10477.69
449.619	10373.13
449.977	10259.82
450.335	10036.25
450.693	9901.67
451.051	9891.69
451.409	9880.42
451.766	9941.6
452.124	9689.05
452.482	9426.52
452.839	9247.34
453.197	9151.61
453.555	9044.21
453.912	9024.63
454.27	9236.8
454.627	9550.79
454.984	9562.08
455.342	9418.55
455.699	9150.84
456.056	9153.41
456.414	9361.77
456.771	9532.83
457.128	9789.51
457.485	9855.33
457.842	9773.63
458.199	9770.55
458.556	9967.18
458.913	9866.09
459.27	10016.3
459.627	9889.13
459.984	9818.2
460.341	9979.21
460.697	9753.38
461.054	9423.95
461.411	8943.69
461.767	8594.29
462.124	8536.86
462.481	8789.38
462.837	8947.3
463.194	9444.75
463.55	9307.27
463.907	9688.79
464.263	10046.99
464.619	10348.13
464.976	10771.83
465.332	10992.25
465.688	10584.46
466.044	9813.33
466.4	9403.14
466.756	9100.63
467.112	9148.78
467.468	9088.78
467.824	9071.78
468.18	8876.88
468.536	8716.03
468.892	8558.08
469.248	8440.84
469.604	8324.51
469.959	8269.03
470.315	8248.54
470.671	8259.69
471.026	8348.61
471.382	8495.2
471.737	8754.26
472.093	8921.51
472.448	9199.74
472.804	9411.36
473.159	9641.87
473.514	9669.05
473.87	9723.4
474.225	10129.3
474.58	10680.47
474.935	10879.41
475.29	10645.33
475.645	10414.97
476	10275.39
476.355	10190.61
476.71	10197
477.065	10519.75
477.42	10898.48
477.775	10990.22
478.13	10876.36
478.485	10917.03
478.839	11074.79
479.194	11560.28
479.549	12045.86
479.903	12180.85
480.258	11972.39
480.612	12063.53
480.967	12436.17
481.321	12802.53
481.675	12440.45
482.03	11980.48
482.384	11704.26
482.738	11763.43
483.093	11968.61
483.447	12393.6
483.801	13073.83
484.155	13693.43
484.509	15282.12
484.863	31117.07
485.217	43808.76
485.571	49038.29
485.925	36073.49
486.279	24022.28
486.632	18189.88
486.986	15570.43
487.34	13775.01
487.694	12765.32
488.047	12281.21
488.401	12362.36
488.754	12304.65
489.108	12040.81
489.461	11757.36
489.815	11534.72
490.168	11658.47
490.522	11687.57
490.875	11717.92
491.228	11650.13
491.581	11716.65
491.935	11785.43
492.288	11602.3
492.641	11766.97
492.994	11709.82
493.347	11979.47
493.7	12022.13
494.053	11974.67
494.406	11836.23
494.759	11313.79
495.111	11564.84
495.464	12573.89
495.817	13427.22
496.169	13194.28
496.522	12155.12
496.875	11140.29
497.227	10783.03
497.58	10697.78
497.932	10929.99
498.285	11145.11
498.637	11478.75
498.989	11846.85
499.342	11979.21
499.694	11619.76
500.046	11204.23
500.398	11477.99
500.751	11921.13
501.103	11960.78
501.455	12025.92
501.807	11901.17
502.159	12010.52
502.511	11920.37
502.862	11904.45
503.214	11610.65
503.566	11256.99
503.918	10896.44
504.27	10888.05
504.621	10926.95
504.973	10777.17
505.324	10796.51
505.676	11026.29
506.027	11244.31
506.379	10762.93
506.73	10178.61
507.082	10211.05
507.433	10510.57
507.784	10815.84
508.136	10584.21
508.487	10451.69
508.838	10059.77
509.189	10038.29
509.54	10257.01
509.891	10212.58
510.242	10079.97
510.593	10067.44
510.944	9893.22
511.295	9685.97
511.646	9347.89
511.996	9365.62
512.347	9468.13
512.698	9589.54
513.049	9490.72
513.399	9350.2
513.75	9295.7
514.1	9168.86
514.451	8833.27
514.801	8735.15
515.152	8817.52
515.502	9041.64
515.852	9287.47
516.202	9352.26
516.553	9294.15
516.903	8862.43
517.253	8635.66
517.603	8500.38
517.953	8611.87
518.303	8893.65
518.653	9138.74
519.003	9185.59
519.353	8580.32
519.703	8172
520.052	7993.29
520.402	8031.76
520.752	8244.13
521.102	8176.15
521.451	7955.59
521.801	7990.43
522.15	8088.4
522.5	8192.76
522.849	8294.96
523.199	8333.58
523.548	8543.59
523.897	8566.1
524.246	8297.03
524.596	7941.55
524.945	7987.83
525.294	8004.73
525.643	8087.62
525.992	8113.85
526.341	8103.98
526.69	8075.67
527.039	8002.13
527.388	7721.84
527.737	8091.25
528.086	8607.48
528.434	9222.9
528.783	9047.31
529.132	8619.63
529.48	8304.81
529.829	8145.78
530.177	8040.08
530.526	8026.56
530.874	8044.75
531.223	8050.73
531.571	7988.61
531.919	8071.77
532.268	8340.06
532.616	9006.59
532.964	9446.55
533.312	9533.34
533.66	9422.66
534.008	9456.83
534.356	9438.85
534.704	9303.15
535.052	9030.56
535.4	8770.28
535.748	8305.85
536.095	7896.29
536.443	7801.55
536.791	7996.93
537.139	8362.35
537.486	8885.39
537.834	9043.7
538.181	9140.03
538.529	9123.8
538.876	9174.26
539.223	8916.35
539.571	8605.93
539.918	8451.45
540.265	8627.9
540.613	9073.33
540.96	8968.18
541.307	8887.72
541.654	8801.26
542.001	8895.71
542.348	8838.69
542.695	8844.88
543.042	8987
543.388	9245.8
543.735	9379.5
544.082	9404.42
544.429	9287.72
544.775	9005.3
545.122	8566.62
545.469	8070.21
545.815	8057.74
546.162	8229.6
546.508	8568.94
546.854	9087.49
547.201	9907.3
547.547	10215.9
547.893	9953.88
548.24	9144.92
548.586	8200.81
548.932	7851.53
549.278	7715.32
549.624	7894.47
549.97	7853.61
550.316	7504.55
550.662	7313.52
551.008	7760.92
551.353	8818.3
551.699	9499.45
552.045	9258.15
552.391	8691.23
552.736	8474.49
553.082	8413.64
553.427	8306.11
553.773	7837.21
554.118	7603.99
554.464	7906.96
554.809	8583.69
555.154	9031.59
555.5	9033.65
555.845	8590.93
556.19	7983.67
556.535	7584.42
556.88	7705.16
557.225	7790.87
557.57	7596.68
557.915	7282.13
558.26	6929.1
558.605	6983.95
558.95	7211.2
559.295	7934.79
559.639	8620.15
559.984	9476.86
560.329	9643.66
560.673	9636.48
561.018	9054.52
561.362	8649.1
561.707	8221.3
562.051	8274.73
562.395	8309.99
562.74	8855.2
563.084	9079.25
563.428	9486.1
563.772	9451.95
564.117	9598
564.461	9669.82
564.805	9456.06
565.149	9515.11
565.493	9533.85
565.836	9784.64
566.18	10082.01
566.524	11251.92
566.868	12217.93
567.212	12828.67
567.555	12910.59
567.899	14036.31
568.242	15483.72
568.586	17354.14
568.929	19774.72
569.273	22466.44
569.616	22999.52
569.96	23460.12
570.303	24830.78
570.646	25686.01
570.989	27080.87
571.333	27239.75
571.676	25621.46
572.019	21742.47
572.362	22453.43
572.705	26435.63
573.048	30328.01
573.391	32339.95
573.733	33733.41
574.076	34429.21
574.419	33279.61
574.762	29601.11
575.104	26098.6
575.447	24788.82
575.789	28077.36
576.132	32834.35
576.474	33604.65
576.817	38557.22
577.159	44287.15
577.501	46163.99
577.844	40401.24
578.186	31267.75
578.528	27037.16
578.87	26874.86
579.212	28484.03
579.554	31570.38
579.896	31236.23
580.238	33400.44
580.58	44455.71
580.922	52342.34
581.264	56422.57
581.606	48663.37
581.947	41803.11
582.289	33297.12
582.631	26392.43
582.972	22504.98
583.314	22806.62
583.655	24245.07
583.997	29003.87
584.338	34563.72
584.679	38368.48
585.021	37791.59
585.362	32351.29
585.703	27543.56
586.044	25479.61
586.385	28818.28
586.726	32451.34
587.067	31676.04
587.408	27657.28
587.749	25029.54
588.09	22854.23
588.431	20819.64
588.772	18450.79
589.113	19079.12
589.453	19649.73
589.794	18863.6
590.134	16873.93
590.475	15811.8
590.815	15813.53
591.156	16158.61
591.496	16520.42
591.837	21779.06
592.177	27391.28
592.517	31399.23
592.857	28772.56
593.198	25205
593.538	20387.81
593.878	18156.09
594.218	19160.63
594.558	21426.67
594.898	20945.44
595.237	18773.67
595.577	16305.12
595.917	14262.85
596.257	15240.59
596.596	16188.37
596.936	17477.2
597.276	16144.48
597.615	16057.68
597.955	20075.29
598.294	24187.66
598.633	24907.83
598.973	22778.4
599.312	22059.2
599.651	22290.69
599.991	21251.3
600.33	20670.47
600.669	19389.6
601.008	18372.14
601.347	16784.1
601.686	17595.52
602.025	17737.52
602.364	19300.24
602.702	20163.82
603.041	20368.88
603.38	18583.17
603.719	16864.52
604.057	15545.84
604.396	15468.81
604.734	16580.84
605.073	20167.26
605.411	20293.15
605.75	19202
606.088	16685.58
606.426	17105.21
606.764	17968.32
607.103	17486.34
607.441	15794.42
607.779	14990.03
608.117	15243.08
608.455	14336.99
608.793	13517.66
609.131	15247.06
609.469	16633.83
609.806	16715.04
610.144	14230.65
610.482	13312.16
610.819	13628.85
611.157	13579.77
611.495	12702.2
611.832	12367.15
612.17	12495.86
612.507	13058.01
612.844	12854.05
613.182	12680.07
613.519	12837.47
613.856	13013.82
614.193	13001.52
614.53	13761.75
614.867	14089.03
615.205	12812.08
615.541	11825.36
615.878	10577.59
616.215	10785.06
616.552	10655.52
616.889	11078.6
617.226	11601.04
617.562	11086.98
617.899	9795.66
618.235	8731.28
618.572	7952.21
618.908	8410.53
619.245	9281.55
619.581	9881.7
619.918	8973.59
620.254	6741.48
620.59	6066.16
620.926	6986.58
621.262	8182.12
621.599	8381.52
621.935	8306.11
622.271	8923.83
622.606	9460.94
622.942	9282.07
623.278	8453.52
623.614	8991.64
623.95	9486.61
624.285	9202.83
624.621	8292.11
624.957	7607.9
625.292	7272.97
625.628	6825.87
625.963	6550.62
626.299	6896.28
626.634	7222.19
626.969	7173.75
627.304	6178.11
627.64	5103.44
627.975	5137.68
628.31	5727.14
628.645	6403.21
628.98	6148.49
629.315	5906.09
629.65	5653.49
629.985	5773.63
630.319	5355.94
630.654	5104.78
630.989	5202.65
631.323	5048.04
631.658	4782.33
631.993	4244.41
632.327	4209.01
632.662	4264.68
632.996	4531.97
633.33	4576.93
633.665	4433.08
633.999	4101.36
634.333	4042.6
634.667	4055.33
635.001	4243.87
635.335	4536.01
635.669	4959.91
636.003	4968.76
636.337	4515.27
636.671	4035.02
637.005	3716.41
637.339	3710.42
637.672	3987.87
638.006	4304.65
638.339	4238.74
638.673	3959.14
639.006	3741.15
639.34	3665.27
639.673	3566.44
640.007	3597.77
640.34	3534.57
640.673	3408.02
641.006	3382.91
641.34	3265.15
641.673	3139.27
642.006	2958.05
642.339	3120.65
642.672	3220.29
643.004	3122.57
643.337	2977.81
643.67	2940.76
644.003	2942.95
644.336	3015.12
644.668	3035.42
645.001	2932.79
645.333	2860
645.666	2752.2
645.998	2616.41
646.331	2508.26
646.663	2543.32
646.995	2821.52
647.327	3311.07
647.66	3835.42
647.992	3994.11
648.324	4043.14
648.656	3942.06
648.988	3661.73
649.32	3184.99
649.652	2828.94
649.983	2656.09
650.315	2655.54
650.647	2749.44
650.979	3010.18
651.31	3308.34
651.642	3511.67
651.973	3531.57
652.305	3505.95
652.636	3444.31
652.967	3289.75
653.299	3109.97
653.63	3087.22
653.961	3445.13
654.292	5021.53
654.623	29842.14
654.955	68944.17
655.286	68944.17
655.616	68944.17
655.947	68944.17
656.278	68944.17
656.609	31105.25
656.94	15869.13
657.27	10585.99
657.601	8267.21
657.932	6362.56
658.262	4776.69
658.593	3673.7
658.923	2899.56
659.254	2558.77
659.584	2375.09
659.914	2214.8
660.244	2123.58
660.575	2159.91
660.905	2185.7
661.235	2223.67
661.565	2299
661.895	2307.03
662.225	2261.9
662.555	2204.83
662.884	2203.99
663.214	2330.83
663.544	2375.09
663.873	2420.7
664.203	2481.21
664.533	2606.21
664.862	2652.79
665.192	2523.72
665.521	2292.91
665.85	2128.85
666.18	1959.7
666.509	1990.56
666.838	2039.46
667.167	2127.46
667.496	2092.22
667.825	2105.54
668.154	2110.53
668.483	2114.97
668.812	2183.48
669.141	2274.36
669.47	2343.56
669.798	2295.4
670.127	2219.51
670.456	2369.83
670.784	2936.91
671.113	3505.4
671.441	4069.14
671.77	3959.41
672.098	3648.13
672.426	3006.34
672.755	2505.5
673.083	2409.09
673.411	2422.64
673.739	2402.18
674.067	2214.53
674.395	2178.49
674.723	2280.45
675.051	2371.77
675.379	2424.57
675.706	2376.19
676.034	2256.91
676.362	2218.13
676.689	2425.12
677.017	2772.83
677.344	3091.33
677.672	3123.94
677.999	2931.42
678.327	2985.77
678.654	3294.67
678.981	3495.86
679.308	3515.49
679.636	3287.29
679.963	2956.13
680.29	2782.19
680.617	2903.14
680.944	3074.34
681.271	3023.07
681.597	2597.11
681.924	2267.16
682.251	2197.34
682.578	2470.99
682.904	2785.49
683.231	3144.2
683.557	3253.94
683.884	3429.58
684.21	3644.86
684.536	3837.86
684.863	3980.83
685.189	3881.83
685.515	3578.97
685.841	3233.7
686.167	3128.32
686.493	3319.27
686.819	3287.56
687.145	3066.94
687.471	2623.57
687.797	2376.19
688.123	2428.44
688.448	2569.8
688.774	2807.49
689.1	2771.73
689.425	2561.53
689.751	2431.2
690.076	2621.37
690.402	3078.45
690.727	3349.86
691.052	3277.18
691.377	3009.09
691.703	2840.21
692.028	2749.44
692.353	2903.14
692.678	2935.54
693.003	2826.19
693.328	2446.4
693.652	2136.34
693.977	2116.08
694.302	2416
694.627	2622.75
694.951	2511.85
695.276	2126.35
695.6	1920.48
695.925	2343
696.249	3160.63
696.574	3662.55
696.898	3534.29
697.222	3048.58
697.546	2720.54
697.871	2545.25
698.195	2554.91
698.519	2449.99
698.843	2371.22
699.167	2166.29
699.491	1996.39
699.814	1938.29
700.138	1995.56
700.462	1977.49
700.786	1930.22
701.109	2001.68
701.433	2218.96
701.756	2390.85
702.08	2454.69
702.403	2325.29
702.726	2184.04
703.05	2016.68
703.373	1961.09
703.696	1979.44
704.019	1864.27
704.342	1751.15
704.665	1599.03
704.988	1542.29
705.311	1749.47
705.634	2114.97
705.957	2662.16
706.28	3180.34
706.602	3396.28
706.925	3206.61
707.247	2937.46
707.57	2670.42
707.892	2532.28
708.215	2310.35
708.537	2075.28
708.859	2082.22
709.182	2117.75
709.504	2269.38
709.826	2351.02
710.148	2344.94
710.47	2264.67
710.792	2075.56
711.114	1900.73
711.436	1802.16
711.758	1857.58
712.079	1942.46
712.401	2099.16
712.723	2287.37
713.044	2581.94
713.366	2733.21
713.687	2688.6
714.009	2517.93
714.33	2406.05
714.652	2230.32
714.973	2141.88
715.294	1913.25
715.615	1748.08
715.936	1647.07
716.257	1614.95
716.578	1650.42
716.899	1680.57
717.22	1889.6
717.541	2005.57
717.862	2093.6
718.182	2030.02
718.503	2113.86
718.824	2134.12
719.144	2052.51
719.465	1890.71
719.785	1869.56
720.105	2002.79
720.426	2048.07
720.746	2087.22
721.066	2008.62
721.386	1938.01
721.706	1863.15
722.026	1823.05
722.346	1734.97
722.666	1802.99
722.986	1876.24
723.306	1851.18
723.626	1847.28
723.946	1758.12
724.265	1914.92
724.585	2217.57
724.904	2313.12
725.224	2307.3
725.543	2274.36
725.863	2184.59
726.182	2100.54
726.501	1936.62
726.82	1954.7
727.14	2086.66
727.459	2223.95
727.778	2218.68
728.097	2204.83
728.416	2192.35
728.734	2346.88
729.053	2475.41
729.372	2444.47
729.691	2488.94
730.009	2783.56
730.328	2994
730.647	3088.32
730.965	2843.78
731.283	2644.24
731.602	2468.23
731.92	2535.31
732.238	2694.66
732.557	2766.51
732.875	2899.29
733.193	3223.85
733.511	3503.22
733.829	3378.54
734.147	2989.33
734.465	2600.69
734.782	2582.49
735.1	2748.62
735.418	2755.77
735.735	2772.01
736.053	2789.89
736.371	2800.62
736.688	2610.89
737.005	2334.15
737.323	2109.7
737.64	2111.09
737.957	2263.56
738.274	2716.14
738.592	3003.05
738.909	2924.01
739.226	2420.15
739.543	2024.74
739.86	1799.93
740.176	1742.5
740.493	1586.73
740.81	1597.91
741.127	1637.02
741.443	1823.33
741.76	1980.55
742.076	1994.17
742.393	1810.24
742.709	1624.73
743.025	1555.99
743.342	1565.77
743.658	1598.19
743.974	1698.43
744.29	1776.24
744.606	1683.64
744.922	1642.88
745.238	1664.94
745.554	1588.69
745.87	1565.21
746.186	1631.15
746.501	1821.66
746.817	1770.38
747.132	1585.9
747.448	1413.27
747.763	1386.38
748.079	1539.77
748.394	1816.09
748.71	2093.88
749.025	2347.43
749.34	2438.94
749.655	2367.62
749.97	2162.41
750.285	2095.82
750.6	2147.16
750.915	2286.54
751.23	2227.27
751.545	2070.84
751.859	1882.64
752.174	1809.12
752.489	1999.73
752.803	2272.15
753.118	2330.55
753.432	2207.04
753.747	2027.79
754.061	2129.12
754.375	2301.49
754.689	2493.36
755.004	2549.94
755.318	2624.68
755.632	2805.57
755.946	3010.73
756.26	3201.69
756.573	3547.65
756.887	3743.59
757.201	3691.11
757.515	3098.46
757.828	2606.48
758.142	2538.63
758.455	2895.17
758.769	3356.42
759.082	3597.49
759.396	3671.8
759.709	3750.39
760.022	3727.82
760.335	3402.84
760.648	2919.89
760.962	2483.14
761.275	2156.03
761.587	2119.41
761.9	2174.33
762.213	2248.33
762.526	2544.97
762.839	2552.7
763.151	2648.1
763.464	2970.4
763.776	3514.4
764.089	3722.93
764.401	3448.95
764.714	3043.09
765.026	2617.78
765.338	2277.41
765.65	1977.77
765.962	1713.77
766.275	1612.72
766.587	1623.05
766.898	1765.09
767.21	2048.9
767.522	2369
767.834	2590.21
768.146	2554.08
768.457	2298.17
768.769	2030.29
769.08	1973.88
769.392	2138
769.703	2388.36
770.015	2626.05
770.326	2647.28
770.637	2480.38
770.948	2053.9
771.26	1787.94
771.571	1753.1
771.882	1841.99
772.193	1884.87
772.504	1798.53
772.814	1678.34
773.125	1638.69
773.436	1519.92
773.747	1488.3
774.057	1436.24
774.368	1416.63
774.678	1381.33
774.989	1257.65
775.299	1227.05
775.609	1227.89
775.919	1247.54
776.23	1314.61
776.54	1297.78
776.85	1296.66
777.16	1274.21
777.47	1496.42
777.78	1671.08
778.089	1797.98
778.399	1763.41
778.709	1679.45
779.019	1502.85
779.328	1309.28
779.638	1277.86
779.947	1557.95
780.257	1898.5
780.566	2054.18
780.875	1955.81
781.185	1746.69
781.494	1622.5
781.803	1550.68
782.112	1495.58
782.421	1607.69
782.73	1626.96
783.039	1619.14
783.348	1456.12
783.656	1219.46
783.965	1181.54
784.274	1300.3
784.582	1379.09
784.891	1453.88
785.199	1390.86
785.508	1323.02
785.816	1252.6
786.124	1300.58
786.432	1456.12
786.741	1562.42
787.049	1623.89
787.357	1564.65
787.665	1530.54
787.973	1566.33
788.281	1468.15
788.588	1296.94
788.896	1134.04
789.204	1095.22
789.511	1056.39
789.819	1090.44
790.126	1049.35
790.434	1063.15
790.741	1101.69
791.049	1065.12
791.356	1015.85
791.663	973.59
791.97	973.02
792.277	1021.2
792.584	1088.19
792.891	1356.67
793.198	1597.63
793.505	1674.43
793.812	1559.62
794.119	1472.07
794.425	1388.62
794.732	1266.91
795.038	1058.08
795.345	873.48
795.651	811.94
795.958	828.6
796.264	914.67
796.57	1033.87
796.876	1090.16
797.183	1036.97
797.489	920.87
797.795	949.63
798.101	922.56
798.406	937.51
798.712	903.1
799.018	858.52
799.324	892.95
799.629	857.96
799.935	869.25
800.24	832.83
800.546	843.84
800.851	814.48
801.157	762.21
801.462	745.53
801.767	751.19
802.072	783.69
802.377	879.69
802.682	884.2
802.987	850.34
803.292	809.96
803.597	775.21
803.902	809.68
804.207	797.53
804.511	812.22
804.816	881.38
805.12	1020.92
805.425	1119.41
805.729	1121.66
806.034	1034.15
806.338	932.72
806.642	888.15
806.946	852.88
807.251	875.74
807.555	897.74
807.859	910.16
808.162	863.88
808.466	867.84
808.77	801.77
809.074	756.84
809.378	757.97
809.681	772.95
809.985	763.06
810.288	794.99
810.592	732.25
810.895	710.19
811.198	694.06
811.502	656.43
811.805	663.79
812.108	669.45
812.411	716.13
812.714	837.07
813.017	909.87
813.32	880.53
813.623	835.37
813.926	752.6
814.228	709.06
814.531	619.34
814.833	649.07
815.136	610.56
815.438	653.03
815.741	657.28
816.043	674.26
816.345	685.29
816.648	702.27
816.95	679.92
817.252	676.81
817.554	617.07
817.856	611.98
818.158	603.76
818.46	610.56
818.761	606.31
819.063	645.39
819.365	653.32
819.666	683.31
819.968	744.12
820.269	766.17
820.571	730.83
820.872	699.16
821.173	636.61
821.475	613.96
821.776	590.73
822.077	600.08
822.378	613.68
822.679	577.41
822.98	586.2
823.281	586.48
823.581	589.6
823.882	610.56
824.183	573.45
824.483	617.36
824.784	667.75
825.084	646.52
825.385	640.01
825.685	645.96
825.985	629.53
826.286	617.36
826.586	628.97
826.886	642.56
827.186	648.5
827.486	578.55
827.786	608.29
828.086	592.71
828.386	582.52
828.685	593.85
828.985	592.15
829.285	606.88
829.584	566.65
829.884	544.25
830.183	540.57
830.482	543.12
830.782	516.47
831.081	532.35
831.38	535.75
831.679	535.75
831.978	519.87
832.277	595.55
832.576	589.03
832.875	563.53
833.174	553.89
833.472	550.49
833.771	569.2
834.07	556.73
834.368	523.56
834.667	551.91
834.965	574.3
835.263	530.36
835.562	549.36
835.86	526.68
836.158	513.06
836.456	519.59
836.754	510.79
837.052	502
837.35	523.84
837.648	515.05
837.946	506.26
838.243	514.76
838.541	524.97
838.839	529.79
839.136	526.11
839.434	545.39
839.731	515.05
840.028	528.94
840.326	504.55
840.623	510.79
840.92	499.16
841.217	527.53
841.514	509.66
841.811	476.18
842.108	494.06
842.405	471.08
842.701	478.74
842.998	492.36
843.295	488.67
843.591	488.38
843.888	490.65
844.184	498.03
844.481	473.63
844.777	464.83
845.073	509.94
845.369	512.21
845.665	492.64
845.962	491.5
846.258	492.07
846.553	501.15
846.849	494.91
847.145	492.92
847.441	475.9
847.737	521.29
848.032	486.97
848.328	469.66
848.623	519.3
848.919	489.8
849.214	502.57
849.509	463.13
849.805	484.13
850.1	474.48
850.395	519.3
850.69	494.63
850.985	488.1
851.28	470.79
851.575	491.5
851.869	463.13
852.164	501.15
852.459	520.15
852.753	528.66
853.048	511.93
853.342	552.76
853.637	549.07
853.931	515.05
854.225	528.66
854.52	533.76
854.814	506.82
855.108	523.56
855.402	521
855.696	507.39
855.99	495.48
856.283	514.2
856.577	511.64
856.871	510.79
857.164	491.79
857.458	498.31
857.751	471.93
858.045	494.06
858.338	492.07
858.632	482.71
858.925	511.64
859.218	478.17
859.511	511.36
859.804	487.25
860.097	468.8
860.39	494.63
860.683	492.92
860.976	466.53
861.268	505.97
861.561	486.97
861.854	474.76
862.146	475.62
862.439	483.84
862.731	488.1
863.023	490.09
863.316	494.91
863.608	509.38
863.9	493.49
864.192	486.68
864.484	467.1
864.776	491.5
865.068	480.72
865.36	497.75
865.651	514.48
865.943	457.17
866.235	488.67
866.526	457.17
866.818	494.06
867.109	464.26
867.4	487.53
867.692	486.97
867.983	485.55
868.274	483.84
868.565	479.87
868.856	492.92
869.147	477.6
869.438	456.6
869.729	494.63
870.02	483.28
870.31	479.59
870.601	472.49
870.892	483.28
871.182	478.17
871.473	465.68
871.763	482.99
872.053	478.74
872.343	469.09
872.634	477.89
872.924	479.02
873.214	475.62
873.504	489.24
873.794	461.71
874.084	484.98
874.373	478.17
874.663	475.33
874.953	465.12
875.242	501.15
875.532	473.35
875.821	466.53
876.111	458.59
876.4	478.45
876.689	477.6
876.978	504.55
877.268	488.1
877.557	494.06
877.846	486.4
878.134	476.47
878.423	476.47
878.712	476.47
