Data from FLMS007011_11-20-40-744.txt Node
Date: Thu Apr 21 11:20:40 MDT 2016
User: lab_user
Spectrometer: FLMS00701
Autoset integration time: false
Trigger mode: 0
Integration Time (sec): 5.000000E-3
Scans to average: 10
Electric dark correction enabled: true
Nonlinearity correction enabled: true
Boxcar width: 0
XAxis mode: Wavelengths
Stop averaging: false
Number of Pixels in Spectrum: 2048
>>>>>Begin Spectral Data<<<<<
178.41	35.31
178.791	35.31
179.172	35.31
179.553	-49.55
179.934	-40.12
180.316	-84.15
180.697	-37.55
181.078	-58.13
181.459	-77.29
181.84	-54.13
182.221	-38.4
182.602	-20.4
182.983	13.89
183.364	33.31
183.744	42.44
184.125	74.99
184.506	75.56
184.887	113.22
185.268	120.63
185.648	127.19
186.029	177.93
186.41	202.72
186.791	199.87
187.171	269.06
187.552	309.75
187.932	356.1
188.313	414.34
188.694	426.84
189.074	437.63
189.455	431.1
189.835	453.53
190.216	458.63
190.596	502.05
190.977	495.24
191.357	502.33
191.737	517.36
192.118	526.16
192.498	532.96
192.878	523.32
193.258	500.06
193.639	583.41
194.019	555.36
194.399	549.12
194.779	560.18
195.159	589.93
195.54	570.94
195.92	577.75
196.3	589.93
196.68	579.16
197.06	580.58
197.44	579.73
197.82	602.96
198.2	600.41
198.58	586.81
198.959	583.41
199.339	595.03
199.719	578.88
200.099	587.38
200.479	595.03
200.858	597.58
201.238	624.48
201.618	591.91
201.998	599.84
202.377	604.09
202.757	630.15
203.136	601.54
203.516	613.44
203.896	631.28
204.275	641.76
204.655	659.87
205.034	656.76
205.414	649.68
205.793	653.65
206.172	639.49
206.552	643.45
206.931	673.17
207.31	686.76
207.69	660.72
208.069	702.88
208.448	689.3
208.827	703.45
209.207	713.63
209.586	733.14
209.965	720.13
210.344	745.86
210.723	727.77
211.102	751.23
211.481	764.52
211.86	808.88
212.239	770.74
212.618	796.16
212.997	822.71
213.376	819.33
213.755	850.95
214.134	857.16
214.513	878.32
214.891	898.92
215.27	882.84
215.649	929.1
216.028	949.4
216.406	949.4
216.785	953.91
217.164	1000.68
217.542	1010.54
217.921	1045.18
218.3	1033.35
218.678	1083.17
219.057	1064.32
219.435	1120.87
219.814	1127.62
220.192	1131.83
220.57	1180.74
220.949	1254.61
221.327	1217.26
221.705	1265.84
222.084	1311.85
222.462	1344.94
222.84	1389.51
223.218	1379.7
223.597	1421.44
223.975	1496.74
224.353	1496.46
224.731	1540.94
225.109	1581.75
225.487	1657.17
225.865	1671.41
226.243	1686.76
226.621	1726.93
226.999	1802.2
227.377	1848.44
227.755	1906.06
228.133	1916.36
228.511	1939.72
228.889	2071.72
229.266	2078.11
229.644	2120.29
230.022	2175.49
230.4	2233.41
230.777	2281.33
231.155	2339.45
231.533	2344.15
231.91	2420.75
232.288	2513
232.665	2573.71
233.043	2577.02
233.42	2680.38
233.798	2712.6
234.175	2754.99
234.553	2825.69
234.93	2890.55
235.307	2920.48
235.685	2976.21
236.062	2990.75
236.439	3039.85
236.816	3157.12
237.194	3216.24
237.571	3272.03
237.948	3292.26
238.325	3374.22
238.702	3409.7
239.079	3431.26
239.456	3508.45
239.833	3580.38
240.21	3609.25
240.587	3687.08
240.964	3748.8
241.341	3803.42
241.718	3842.79
242.095	3861.52
242.472	3951.59
242.849	4031.81
243.225	4078.12
243.602	4146.05
243.979	4127.11
244.356	4227.97
244.732	4276.61
245.109	4330.88
245.486	4393.21
245.862	4406.97
246.239	4506.69
246.615	4501.31
246.992	4627.83
247.368	4625.41
247.745	4669.78
248.121	4702.04
248.497	4762.5
248.874	4820.22
249.25	4907.42
249.626	4960.76
250.003	4979.25
250.379	5077.8
250.755	5081.28
251.131	5169.82
251.507	5179.98
251.884	5267.89
252.26	5275.37
252.636	5326.09
253.012	5453.32
253.388	5453.59
253.764	5520.73
254.14	5549.75
254.516	5538.84
254.892	5630.13
255.268	5692.63
255.643	5652.47
256.019	5673.48
256.395	5744.19
256.771	5781.91
257.147	5828.11
257.522	5832.63
257.898	5888.89
258.274	5924.43
258.649	5952.8
259.025	6025.95
259.4	5981.96
259.776	6058.26
260.151	6011.11
260.527	6046.35
260.902	6175.51
261.278	6150.12
261.653	6162.02
262.028	6177.89
262.404	6226.55
262.779	6246.64
263.154	6274.92
263.53	6331.45
263.905	6242.68
264.28	6283.9
264.655	6330.13
265.03	6291.83
265.405	6347.03
265.781	6310.32
266.156	6349.93
266.531	6379.5
266.906	6372.11
267.281	6469.21
267.655	6338.84
268.03	6377.66
268.405	6360.76
268.78	6428.06
269.155	6392.17
269.53	6476.07
269.904	6392.7
270.279	6447.58
270.654	6450.75
271.029	6432.54
271.403	6409.06
271.778	6470.26
272.152	6419.62
272.527	6396.13
272.901	6473.43
273.276	6448.9
273.65	6519.83
274.025	6468.68
274.399	6484.77
274.774	6451.8
275.148	6466.84
275.522	6467.36
275.897	6471.58
276.271	6432.81
276.645	6530.9
277.019	6503.22
277.393	6543.55
277.768	6446
278.142	6450.48
278.516	6425.16
278.89	6424.1
279.264	6408.53
279.638	6425.16
280.012	6436.24
280.386	6395.34
280.76	6360.5
281.133	6401.41
281.507	6368.42
281.881	6486.61
282.255	6407.21
282.629	6334.88
283.002	6321.68
283.376	6344.13
283.75	6289.45
284.123	6361.55
284.497	6270.69
284.87	6258.53
285.244	6292.09
285.618	6191.65
285.991	6142.44
286.364	6171.02
286.738	6220.47
287.111	6192.44
287.485	6151.7
287.858	6106.45
288.231	6060.38
288.605	6039.72
288.978	6024.09
289.351	5961.82
289.724	5910.9
290.097	5910.37
290.47	5873.76
290.843	5872.97
291.217	5815.64
291.59	5725.32
291.963	5743.66
292.336	5689.17
292.708	5626.67
293.081	5561.47
293.454	5593.41
293.827	5530.05
294.2	5478.37
294.573	5499.95
294.945	5428.26
295.318	5395.73
295.691	5399.46
296.064	5381.33
296.436	5302.87
296.809	5319.95
297.181	5307.14
297.554	5219.27
297.926	5203.23
298.299	5231.29
298.671	5231.56
299.044	5152.17
299.416	5134.52
299.788	5112.05
300.161	5086.36
300.533	5083.95
300.905	5110.44
301.278	5041.93
301.65	5109.64
302.022	5056.92
302.394	4993.45
302.766	4953.53
303.138	4910.37
303.51	4931.81
303.882	4889.72
304.254	4896.42
304.626	4851.36
304.998	4881.4
305.37	4734.83
305.742	4752.83
306.114	4711.45
306.485	4703.66
306.857	4702.58
307.229	4679.73
307.601	4605.77
307.972	4668.98
308.344	4661.18
308.716	4649.08
309.087	4715.48
309.459	4745.57
309.83	4867.99
310.202	4908.22
310.573	5013.54
310.945	5119.54
311.316	5232.89
311.687	5371.46
312.059	5487.7
312.43	5712.3
312.801	5854.13
313.172	5993.36
313.544	6131.33
313.915	6390.06
314.286	6457.6
314.657	6646.01
315.028	6634.16
315.399	6790.17
315.77	6860.6
316.141	6810.41
316.512	6898.16
316.883	6761.51
317.254	6765.2
317.625	6636.01
317.996	6579.91
318.366	6601.25
318.737	6490.3
319.108	6558.31
319.478	6716.28
319.849	6957.49
320.22	7142.62
320.59	7404.29
320.961	7711.46
321.331	8126.35
321.702	8396.33
322.072	8777.81
322.443	9132.34
322.813	9492.82
323.184	9778.54
323.554	10035.78
323.924	10296.11
324.295	10506.79
324.665	10723.53
325.035	11002.2
325.405	10979.08
325.775	11175.35
326.145	11309.02
326.515	11411.16
326.886	11442.07
327.256	11489.94
327.626	11551.47
327.995	11554.25
328.365	11534
328.735	11489.43
329.105	11263.12
329.475	11035.47
329.845	10737.78
330.215	10800.37
330.584	10982.38
330.954	11532.48
331.324	12250.75
331.693	12726.64
332.063	12994.28
332.432	13026.92
332.802	12775.17
333.171	12221.5
333.541	11672.18
333.91	11292.28
334.28	11088.54
334.649	10904.11
335.018	10602.08
335.388	10383.38
335.757	10093.81
336.126	9672.68
336.495	9536.46
336.865	9208.79
337.234	8821.7
337.603	8590.97
337.972	8395.04
338.341	8186.84
338.71	8138.3
339.079	8118.56
339.448	8106.88
339.817	8019.59
340.186	8005.55
340.554	8042.2
340.923	8136.22
341.292	8064.02
341.661	8065.84
342.029	8082.98
342.398	7992.04
342.767	7940.29
343.135	7989.44
343.504	7884.62
343.872	7926.77
344.241	7774.24
344.609	7768.25
344.978	7655.41
345.346	7661.41
345.715	7543.5
346.083	7462.55
346.451	7362.46
346.82	7259.4
347.188	7305.19
347.556	7234.02
347.924	7288.71
348.292	7172.48
348.66	7185.06
349.028	7163.58
349.396	7139.48
349.764	7130.05
350.132	7176.67
350.5	7168.29
350.868	7196.05
351.236	7229.3
351.604	7177.72
351.972	7323.5
352.34	7338.41
352.707	7407.42
353.075	7470.39
353.443	7475.35
353.81	7536.19
354.178	7632.46
354.545	7770.6
354.913	7834.65
355.28	7895.81
355.648	8085.32
356.015	8132.33
356.383	8202.67
356.75	8326.63
357.117	8383.9
357.485	8585.28
357.852	8572.87
358.219	8805.95
358.586	8807.5
358.954	8992.71
359.321	9119.21
359.688	9180.74
360.055	9237.61
360.422	9364.64
360.789	9504.12
361.156	9594.97
361.523	9676.53
361.89	9758.81
362.256	10022.48
362.623	9959.81
362.99	10112.47
363.357	10206.49
363.724	10267.01
364.09	10356.59
364.457	10395.88
364.823	10565.91
365.19	10576.1
365.557	10733.71
365.923	10782.56
366.29	10732.43
366.656	10877.42
367.022	11026.33
367.389	11091.08
367.755	11007.53
368.121	11093.62
368.488	11242.07
368.854	11190.32
369.22	11226.09
369.586	11204.27
369.952	11347.3
370.318	11391.9
370.684	11413.44
371.051	11641.31
371.416	11605.89
371.782	11682.8
372.148	11809.23
372.514	11799.12
372.88	11855.73
373.246	11979.76
373.612	12178.88
373.977	12245.7
374.343	12369.96
374.709	12528.37
375.074	12494.64
375.44	12492.62
375.806	12520.07
376.171	12663.76
376.537	12751.79
376.902	12757.07
377.268	13002.31
377.633	13013.61
377.998	13297.16
378.364	13495.91
378.729	13552.77
379.094	13504.18
379.459	13206.87
379.825	13289.39
380.19	13280.36
380.555	13205.61
380.92	13002.31
381.285	13033.7
381.65	13221.67
382.015	13304.18
382.38	13279.61
382.745	13147.66
383.11	13150.92
383.474	13214.39
383.839	13289.13
384.204	13324.99
384.569	13207.12
384.933	13245.75
385.298	13267.57
385.663	13383.15
386.027	13419.49
386.392	13590.58
386.756	13662.19
387.121	13847.84
387.485	14026.1
387.849	14243.92
388.214	14026.6
388.578	13914.61
388.942	13796.32
389.307	13843.09
389.671	13814.33
390.035	13947.62
390.399	14065.83
390.763	14249.41
391.127	14523.9
391.492	14985.59
391.856	15321.45
392.219	15728.43
392.583	15566.25
392.947	15020.19
393.311	14643.57
393.675	14666.76
394.039	14651.05
394.403	14687.44
394.766	14457.8
395.13	14563.3
395.494	14592.72
395.857	14793.59
396.221	14931.07
396.584	15238.4
396.948	15576.68
397.311	16117
397.675	16369.09
398.038	16448.38
398.401	15988.27
398.765	15687.46
399.128	15340.84
399.491	15230.44
399.854	15065.49
400.218	15208.8
400.581	15007.25
400.944	14972.4
401.307	14602.19
401.67	14838.43
402.033	14674.73
402.396	14797.33
402.759	14895.46
403.122	14932.31
403.485	15165.27
403.847	15379.38
404.21	15598.3
404.573	15780.31
404.936	15807.37
405.298	15548.86
405.661	15180.94
406.023	14809.28
406.386	14786.61
406.749	14707.13
407.111	14786.12
407.473	15090.38
407.836	15417.91
408.198	15552.84
408.561	15568.74
408.923	15602.27
409.285	15644.49
409.647	15332.89
410.009	15025.17
410.372	15191.39
410.734	15069.97
411.096	15110.03
411.458	15337.86
411.82	15452.95
412.182	15590.35
412.544	15731.16
412.906	15835.42
413.267	15667.59
413.629	15489.98
413.991	15364.71
414.353	15410.95
414.714	15101.32
415.076	15115.76
415.438	15215.51
415.799	15350.79
416.161	15101.08
416.522	15008
416.884	14983.6
417.245	15013.72
417.607	15023.68
417.968	14954.47
418.329	15138.15
418.691	15216.26
419.052	15226.21
419.413	15404.73
419.774	15617.67
420.135	16228.57
420.497	16815.81
420.858	17386.81
421.219	17471.56
421.58	17000.38
421.941	16549.93
422.302	15973.39
422.662	15987.78
423.023	15699.38
423.384	15602.27
423.745	15778.33
424.106	15738.61
424.466	16044.58
424.827	15680.75
425.187	15220.24
425.548	14882.76
425.909	14791.1
426.269	14990.57
426.63	15127.95
426.99	15459.66
427.35	15321.95
427.711	15402.25
428.071	15738.11
428.431	16407.5
428.792	17688.67
429.152	18658.88
429.512	18801.06
429.872	18538.1
430.232	18053.99
430.592	17133.19
430.952	16075.83
431.312	15402.25
431.672	14844.16
432.032	15015.96
432.392	15414.92
432.752	16998.9
433.111	17852.6
433.471	17453.77
433.831	16075.09
434.19	16099.39
434.55	16157.41
434.91	15786.27
435.269	16092.2
435.629	16328.45
435.988	16525.66
436.348	16009.36
436.707	15564.76
437.066	15441.27
437.426	15768.65
437.785	15941.63
438.144	15940.14
438.503	15759.71
438.862	15583.14
439.222	15349.55
439.581	15136.9
439.94	15584.88
440.299	16695.52
440.658	17638.54
441.017	17807.68
441.376	17399.41
441.734	16967.49
442.093	16818.29
442.452	17112.91
442.811	17382.85
443.169	17418.19
443.528	16791.81
443.887	16673.49
444.245	16651.7
444.604	16238.48
444.962	16034.41
445.321	16042.6
445.679	16147.25
446.038	16394.37
446.396	16031.19
446.754	15539.67
447.112	15477.55
447.471	15280.18
447.829	15112.77
448.187	15153.33
448.545	15329.66
448.903	15167.26
449.261	15142.38
449.619	14912.64
449.977	14812.52
450.335	14519.91
450.693	14372.97
451.051	14376.46
451.409	14376.96
451.766	14289.61
452.124	13888.61
452.482	13644.16
452.839	13371.37
453.197	13249.76
453.555	13179.02
453.912	13236.72
454.27	13618.63
454.627	14118.3
454.984	13915.61
455.342	13521.46
455.699	13320.23
456.056	13328.5
456.414	13710.49
456.771	14115.05
457.128	14233.68
457.485	14419.88
457.842	14172.5
458.199	14250.91
458.556	14504.94
458.913	14519.91
459.27	14769.17
459.627	14372.97
459.984	14474.51
460.341	14628.37
460.697	14247.92
461.054	13480.63
461.411	12861.63
461.767	12596.33
462.124	12561.85
462.481	13013.36
462.837	13295.15
463.194	13921.36
463.55	13710.49
463.907	14555.82
464.263	14843.41
464.619	15468.11
464.976	15983.06
465.332	15971.9
465.688	15267.24
466.044	14058.59
466.4	13806.07
466.756	13455.32
467.112	13497.41
467.468	13524.72
467.824	13316.47
468.18	12904.1
468.536	12838.77
468.892	12457.62
469.248	12418.84
469.604	12205.11
469.959	12252.76
470.315	12139.53
470.671	12156.18
471.026	12459.64
471.382	12663.26
471.737	12947.06
472.093	13171.24
472.448	13771.55
472.804	14059.09
473.159	14343.02
473.514	14218.7
473.87	14550.33
474.225	15414.92
474.58	16089.22
474.935	16004.15
475.29	15493.45
475.645	15424.37
476	15378.38
476.355	15180.69
476.71	15018.45
477.065	15891.51
477.42	16414.19
477.775	16431.53
478.13	16193.86
478.485	16399.57
478.839	16695.03
479.194	17562.47
479.549	18182.77
479.903	18132.69
480.258	17716.32
480.612	18197.32
480.967	19036.31
481.321	19243.65
481.675	18296.72
482.03	17731.14
482.384	17580
482.738	17772.13
483.093	18058.43
483.447	18821.76
483.801	20047.05
484.155	20625.78
484.509	24913.27
484.863	55434.68
485.217	68675.8
485.571	68569.61
485.925	44391.68
486.279	31925.59
486.632	27124.38
486.986	23262.62
487.34	20175.42
487.694	18975.97
488.047	18574.58
488.401	18664.3
488.754	18232.6
489.108	17906.66
489.461	17500.71
489.815	17315.88
490.168	17658.79
490.522	17710.89
490.875	17745.95
491.228	17446.6
491.581	17669.9
491.935	17654.59
492.288	17457.47
492.641	17717.81
492.994	17734.35
493.347	18130.22
493.7	18099.14
494.053	17934.55
494.406	17597.05
494.759	16908.61
495.111	17798.05
495.464	19396.53
495.817	20235.42
496.169	19382.01
496.522	17755.83
496.875	16488.26
497.227	16235.51
497.58	16259.55
497.932	16702.7
498.285	16795.03
498.637	17633.1
498.989	18258.99
499.342	17958.24
499.694	17259.77
500.046	16824.48
500.398	17621
500.751	18098.65
501.103	18101.61
501.455	18125.29
501.807	18200.28
502.159	18096.43
502.511	18015.74
502.862	17974.78
503.214	17571.85
503.566	16845.26
503.918	16455.56
504.27	16493.71
504.621	16563.06
504.973	16242.2
505.324	16456.3
505.676	16983.81
506.027	17067.66
506.379	15924.51
506.73	15450.96
507.082	15711.79
507.433	16302.18
507.784	16573.7
508.136	15995.96
508.487	15730.66
508.838	15358.5
509.189	15407.22
509.54	15730.41
509.891	15427.6
510.242	15462.14
510.593	15233.42
510.944	15073.45
511.295	14646.07
511.646	14178.5
511.996	14294.35
512.347	14594.46
512.698	14600.7
513.049	14421.63
513.399	14240.68
513.75	14298.1
514.1	13938.12
514.451	13301.17
514.801	13276.35
515.152	13596.34
515.502	13939.37
515.852	14215.96
516.202	14224.7
516.553	13985.36
516.903	13505.68
517.253	13074.87
517.603	13031.44
517.953	13056.29
518.303	13756.79
518.653	14054.84
519.003	13807.07
519.353	12897.06
519.703	12225.28
520.052	12200.82
520.402	12433.95
520.752	12677.09
521.102	12316.54
521.451	12040.35
521.801	12240.91
522.15	12379.79
522.5	12598.6
522.849	12653.95
523.199	12921.18
523.548	13060.31
523.897	12881.99
524.246	12599.1
524.596	12174.84
524.945	12272.43
525.294	12242.43
525.643	12209.14
525.992	12301.67
526.341	12487.84
526.69	12326.12
527.039	11995.41
527.388	11805.69
527.737	12546.75
528.086	13605.36
528.434	14162.76
528.783	13664.94
529.132	13039.72
529.48	12640.37
529.829	12555.56
530.177	12332.92
530.526	12083.51
530.874	12427.4
531.223	12335.94
531.571	12354.09
531.919	12445.28
532.268	13060.31
532.616	14137.78
532.964	14582
533.312	14606.93
533.66	14453.31
534.008	14467.28
534.356	14494.72
534.704	14404.41
535.052	13926.87
535.4	13394.68
535.748	12739.97
536.095	12098.15
536.443	12022.68
536.791	12549.77
537.139	13165.97
537.486	13837.34
537.834	13913.36
538.181	14059.34
538.529	14050.59
538.876	14053.34
539.223	13677.96
539.571	13114.03
539.918	13128.83
540.265	13632.4
540.613	14077.58
540.96	13774.05
541.307	13630.64
541.654	13559.03
542.001	13731.26
542.348	13708.24
542.695	13634.15
543.042	14114.8
543.388	14365.98
543.735	14435.35
544.082	14477.51
544.429	14430.36
544.775	13817.83
545.122	13093.45
545.469	12542.22
545.815	12631.81
546.162	12841.78
546.508	13440.29
546.854	14331.29
547.201	15436.3
547.547	15827.72
547.893	15265.26
548.24	13868.85
548.586	12555.06
548.932	12192.25
549.278	12029.75
549.624	12235.62
549.97	12060.8
550.316	11594.24
550.662	11432.69
551.008	12282.26
551.353	14007.36
551.699	14802.06
552.045	14206.22
552.391	13409.72
552.736	13250.76
553.082	13198.09
553.427	12871.69
553.773	12063.83
554.118	11929
554.464	12583.75
554.809	13419.99
555.154	14071.33
555.5	14042.6
555.845	13037.46
556.19	12393.9
556.535	11755.38
556.88	12109.5
557.225	12184.93
557.57	11812.01
557.915	11283.92
558.26	10963.07
558.605	10946.05
558.95	11276.06
559.295	12607.91
559.639	13702.73
559.984	14801.31
560.329	15045.58
560.673	15128.94
561.018	14196.23
561.362	13390.67
561.707	12832.48
562.051	12958.86
562.395	13276.09
562.74	14033.35
563.084	14185.24
563.428	14919.62
563.772	14826.47
564.117	14992.06
564.461	15072.96
564.805	14700.4
565.149	15003.02
565.493	14975.14
565.836	15510.6
566.18	15909.87
566.524	18129.24
566.868	19329.57
567.212	20084.93
567.555	20431.11
567.899	22488.82
568.242	24413.19
568.586	27704.98
568.929	31721.64
569.273	35728.83
569.616	35933.66
569.96	37267.28
570.303	39718.42
570.646	40806.25
570.989	43360.59
571.333	42916.33
571.676	40267.93
572.019	34179.26
572.362	37302.66
572.705	43175.01
573.048	48222.17
573.391	51493.84
573.733	53093.6
574.076	54335.05
574.419	52138.81
574.762	46992.77
575.104	41454.35
575.447	40999.9
575.789	46241.45
576.132	52289.2
576.474	52956.4
576.817	60969.96
577.159	68502.32
577.501	68661.82
577.844	61319.79
578.186	49342.99
578.528	44663.17
578.87	44440.92
579.212	46714.24
579.554	50410.75
579.896	49758.05
580.238	54138.94
580.58	68675.8
580.922	68675.8
581.264	68675.8
581.606	68675.8
581.947	64301.72
582.289	53330.14
582.631	43416.14
582.972	37627.05
583.314	37973.57
583.655	39867.05
583.997	47258.11
584.338	55044.51
584.679	59802.48
585.021	58123.41
585.362	51052.32
585.703	44180.74
586.044	42719.03
586.385	47336.45
586.726	52139.36
587.067	49634.41
587.408	44209.61
587.749	40414.69
588.09	36983.81
588.431	33314.17
588.772	30304.18
589.113	31199.09
589.453	31581.75
589.794	29999.61
590.134	26958.38
590.475	25569.96
590.815	25776.86
591.156	25841.65
591.496	26665.71
591.837	36196.11
592.177	43981.28
592.517	48995.58
592.857	44998.77
593.198	39912.46
593.538	32940.64
593.878	30451.82
594.218	31777.06
594.558	34762.23
594.898	33211.59
595.237	29780.94
595.577	26046.11
595.917	23343.11
596.257	25080.13
596.596	26214.5
596.936	27810.11
597.276	25770.23
597.615	26179.39
597.955	33281.62
598.294	38617.21
598.633	39042.19
598.973	36149.89
599.312	36063.4
599.651	35932.18
599.991	34230.09
600.33	33420.21
600.669	31416.51
601.008	29679.11
601.347	27399.18
601.686	28742.87
602.025	28585.08
602.364	31343.13
602.702	32362.42
603.041	32383.12
603.38	29756.83
603.719	27220.15
604.057	25385.41
604.396	25489.71
604.734	27294.81
605.073	32609.6
605.411	32060.59
605.75	30312.79
606.088	27104.24
606.426	28166.59
606.764	29065.37
607.103	27893.15
607.441	25591.56
607.779	24494.41
608.117	24683.84
608.455	22932.07
608.793	21989.02
609.131	25193.02
609.469	26698.61
609.806	26426.34
610.144	22655.23
610.482	21898.18
610.819	22261.52
611.157	21975.77
611.495	20445.86
611.832	20176.65
612.17	20530.91
612.507	20891.43
612.844	20573.19
613.182	20496.5
613.519	20615.71
613.856	20954.08
614.193	21223.82
614.53	22235.5
614.867	22521.47
615.205	20439.72
615.541	19148.61
615.878	17451.54
616.215	17825.7
616.552	17317.36
616.889	18160.07
617.226	18651.48
617.562	17606.18
617.899	15705.09
618.235	14183.49
618.572	13054.54
618.908	13850.35
619.245	15109.78
619.581	15821.77
619.918	13814.58
620.254	10781.54
620.59	10170.48
620.926	11554.76
621.262	13111.77
621.599	13167.98
621.935	13270.58
622.271	14428.11
622.606	15049.56
622.942	14626.12
623.278	13603.35
623.614	14802.31
623.95	15124.96
624.285	14646.81
624.621	13139.37
624.957	12367.19
625.292	11809.23
625.628	10949.1
625.963	10663.2
626.299	11130.43
626.634	11551.21
626.969	11209.6
627.304	9641.91
627.64	8362.13
627.975	8465.73
628.31	9381.6
628.645	10071.06
628.98	9645.24
629.315	9337.39
629.65	9211.37
629.985	9177.91
630.319	8515.43
630.654	8211.23
630.989	8376.38
631.323	8122.72
631.658	7541.67
631.993	6892.65
632.327	6754.15
632.662	6805.42
632.996	7157.55
633.33	7310.16
633.665	6941.48
633.999	6442.04
634.333	6501.11
634.667	6419.09
635.001	6687.6
635.335	7207.84
635.669	7881.76
636.003	7768.51
636.337	7077.89
636.671	6409.85
637.005	6016.94
637.339	5991.77
637.672	6327.75
638.006	6827.76
638.339	6621.79
638.673	6248.49
639.006	5876.15
639.34	5850.15
639.673	5690.5
640.007	5714.69
640.34	5507.94
640.673	5393.86
641.006	5332.5
641.34	5128.37
641.673	4911.17
642.006	4755.51
642.339	4931.81
642.672	4969.87
643.004	4884.35
643.337	4648
643.67	4552.48
644.003	4699.36
644.336	4711.45
644.668	4701.77
645.001	4604.96
645.333	4439.05
645.666	4240.41
645.998	3998.76
646.331	3924.47
646.663	4016.91
646.995	4442.29
647.327	5271.63
647.66	5984.35
647.992	6195.88
648.324	6318.24
648.656	6144.03
648.988	5742.33
649.32	5034.96
649.652	4585.32
649.983	4339.25
650.315	4269.85
650.647	4406.7
650.979	4857.79
651.31	5238.24
651.642	5480.23
651.973	5490.63
652.305	5587.02
652.636	5501.55
652.967	5210.72
653.299	5003.9
653.63	5040.86
653.961	5748.44
654.292	8787.1
654.623	59146.84
654.955	68675.8
655.286	68675.8
655.616	68675.8
655.947	68675.8
656.278	68675.8
656.609	68675.8
656.94	45184.32
657.27	32415.65
657.601	24515.02
657.932	17154.21
658.262	11430.92
658.593	7780.5
658.923	5543.36
659.254	4469.78
659.584	3933.69
659.914	3588.55
660.244	3394.69
660.575	3402.61
660.905	3407.25
661.235	3489.91
661.565	3585.83
661.895	3588.82
662.225	3500.81
662.555	3403.15
662.884	3433.45
663.214	3537.61
663.544	3651.71
663.873	3691.16
664.203	3829.22
664.533	4041.83
664.862	4103.57
665.192	3885.68
665.521	3534.34
665.85	3259.45
666.18	3042.04
666.509	3032.72
666.838	3138.77
667.167	3280.5
667.496	3215.69
667.825	3150
668.154	3155.75
668.483	3279.96
668.812	3395.51
669.141	3434.81
669.47	3504.63
669.798	3450.09
670.127	3378.58
670.456	3706.39
670.784	4667.1
671.113	5587.29
671.441	6246.64
671.77	6107.77
672.098	5657.53
672.426	4638.59
672.755	4001.47
673.083	3816.18
673.411	3872.65
673.739	3735.75
674.067	3458.54
674.395	3437.81
674.723	3595.09
675.051	3762.93
675.379	3651.71
675.706	3666.13
676.034	3451.18
676.362	3344.99
676.689	3831.93
677.017	4446.87
677.344	4833.64
677.672	4814.05
677.999	4558.4
678.327	4755.78
678.654	5198.15
678.981	5577.97
679.308	5489.29
679.636	5075.39
679.963	4583.43
680.29	4447.14
680.617	4623.79
680.944	4825.32
681.271	4645.04
681.597	4094.63
681.924	3563.22
682.251	3507.36
682.578	3881.88
682.904	4459.54
683.231	4904.2
683.557	5072.98
683.884	5408.8
684.21	5695.82
684.536	6030.98
684.863	6321.68
685.189	6111.22
685.515	5606.98
685.841	5146.55
686.167	5059.06
686.493	5293.52
686.819	5245.72
687.145	4828.28
687.471	4173.91
687.797	3861.8
688.123	3879.98
688.448	4145.24
688.774	4394.83
689.1	4319
689.425	3975.45
689.751	3819.98
690.076	4200.67
690.402	4910.63
690.727	5179.18
691.052	5069.23
691.377	4671.67
691.703	4537.94
692.028	4424.22
692.353	4695.05
692.678	4605.5
693.003	4385.93
693.328	3746.63
693.652	3337.07
693.977	3444.36
694.302	3892.73
694.627	4044
694.951	3814.28
695.276	3266.01
695.6	3033.82
695.925	3833.83
696.249	5010.06
696.574	5710.97
696.898	5294.06
697.222	4724.08
697.546	4323.59
697.871	4141.99
698.195	4047.79
698.519	3866.95
698.843	3751.25
699.167	3418.16
699.491	3178.74
699.814	3083.98
700.138	3078.23
700.462	3036.83
700.786	2991.85
701.109	3172.72
701.433	3475.18
701.756	3698.23
702.08	3754.24
702.403	3577.39
702.726	3282.69
703.05	3118.78
703.373	3050.27
703.696	3048.9
704.019	2880.11
704.342	2643.46
704.665	2434.84
704.988	2429.59
705.311	2677.35
705.634	3347.72
705.957	4205.81
706.28	4836.86
706.602	5149.5
706.925	4931.55
707.247	4518.82
707.57	4173.64
707.892	3931.53
708.215	3604.62
708.537	3353.73
708.859	3298.27
709.182	3365.48
709.504	3564.31
709.826	3693.61
710.148	3686.26
710.47	3459.64
710.792	3219.52
711.114	3023.94
711.436	2878.46
711.758	2922.68
712.079	3023.12
712.401	3305.65
712.723	3558.86
713.044	3998.76
713.366	4145.24
713.687	4182.83
714.009	3879.44
714.33	3731.95
714.652	3518.53
714.973	3324.78
715.294	2938.88
715.615	2667.44
715.936	2516.04
716.257	2480.98
716.578	2436.5
716.899	2572.33
717.22	2940.8
717.541	3068.36
717.862	3112.75
718.182	3068.09
718.503	3240.03
718.824	3187.5
719.144	3127.27
719.465	2945.74
719.785	3018.46
720.105	3107
720.426	3218.42
720.746	3146.44
721.066	3099.6
721.386	2994.87
721.706	2853.45
722.026	2726.92
722.346	2667.44
722.666	2753.62
722.986	2947.39
723.306	2838.06
723.626	2751.69
723.946	2734.35
724.265	3043.14
724.585	3371.48
724.904	3532.98
725.224	3505.72
725.543	3527.8
725.863	3366.84
726.182	3215.69
726.501	3036.56
726.82	3034.64
727.14	3246.87
727.459	3423.62
727.778	3452.54
728.097	3444.36
728.416	3437.54
728.734	3727.33
729.053	3793.37
729.372	3816.73
729.691	3938.85
730.009	4452.26
730.328	4742.35
730.647	4791.5
730.965	4483.25
731.283	4140.91
731.602	3971.38
731.92	4112.5
732.238	4267.69
732.557	4459
732.875	4609.8
733.193	5195.75
733.511	5580.64
733.829	5281.78
734.147	4716.02
734.465	4242.57
734.782	4235.81
735.1	4402.92
735.418	4457.92
735.735	4498.88
736.053	4498.07
736.371	4480.02
736.688	4130.09
737.005	3714.55
737.323	3389.23
737.64	3382.41
737.957	3717.27
738.274	4370.01
738.592	4747.19
738.909	4495.11
739.226	3849.85
739.543	3272.03
739.86	2963.86
740.176	2812.49
740.493	2594.95
740.81	2510.24
741.127	2545.85
741.443	2857.57
741.76	3090.28
742.076	3075.76
742.393	2781.68
742.709	2527.36
743.025	2383.71
743.342	2373.47
743.658	2477.94
743.974	2634.92
744.29	2641.26
744.606	2592.46
744.922	2521.56
745.238	2593.84
745.554	2424.34
745.87	2392.28
746.186	2567.37
746.501	2821.29
746.817	2737.66
747.132	2424.62
747.448	2179.65
747.763	2219.56
748.079	2394.49
748.394	2855.37
748.71	3257.54
749.025	3683.54
749.34	3835.46
749.655	3743.91
749.97	3498.09
750.285	3419.53
750.6	3543.6
750.915	3686.53
751.23	3653.89
751.545	3419.8
751.859	3111.93
752.174	3010.23
752.489	3312.21
752.803	3771.9
753.118	3846.87
753.432	3646.81
753.747	3386.77
754.061	3515.26
754.375	3807.22
754.689	4123.32
755.004	4219.33
755.318	4333.58
755.632	4785.59
755.946	5025.86
756.26	5381.59
756.573	6018.53
756.887	6391.12
757.201	6183.71
757.515	5287.12
757.828	4558.94
758.142	4439.86
758.455	5085.56
758.769	5843.24
759.082	6092.16
759.396	6275.71
759.709	6439.14
760.022	6361.82
760.335	5852.8
760.648	5050.23
760.962	4378.64
761.275	3913.62
761.587	3787.12
761.9	3772.99
762.213	4012.85
762.526	4336.01
762.839	4296.86
763.151	4588.55
763.464	5096.53
763.776	5958.11
764.089	6284.7
764.401	5864.21
764.714	5238.77
765.026	4666.56
765.338	4079.47
765.65	3531.07
765.962	3123.16
766.275	2900.43
766.587	2840.53
766.898	3025.59
767.21	3459.64
767.522	4034.25
767.834	4392.13
768.146	4301.99
768.457	3978.7
768.769	3532.16
769.08	3429.9
769.392	3690.07
769.703	4102.75
770.015	4472.75
770.326	4495.38
770.637	4199.59
770.948	3651.71
771.26	3195.17
771.571	3116.31
771.882	3231.01
772.193	3261.64
772.504	3055.75
772.814	2892.19
773.125	2830.63
773.436	2650.9
773.747	2512.73
774.057	2363.79
774.368	2359.92
774.678	2229.81
774.989	2095.87
775.299	2016.17
775.609	1984.77
775.919	2082.27
776.23	2087.27
776.54	2058.39
776.85	2023.67
777.16	2149.42
777.47	2427.66
777.78	2698.56
778.089	2953.98
778.399	2955.08
778.709	2820.74
779.019	2497.54
779.328	2184.91
779.638	2168
779.947	2610.94
780.257	3197.36
780.566	3516.62
780.875	3352.64
781.185	3023.39
781.494	2857.85
781.803	2754.99
782.112	2632.99
782.421	2760.5
782.73	2817.71
783.039	2831.73
783.348	2467.17
783.656	2126.67
783.965	2058.11
784.274	2222.61
784.582	2374.03
784.891	2433.74
785.199	2349.96
785.508	2210.14
785.816	2181.86
786.124	2214.57
786.432	2492.3
786.741	2693.88
787.049	2789.39
787.357	2686.44
787.665	2686.72
787.973	2701.59
788.281	2529.01
788.588	2248.37
788.896	1978.65
789.204	1878.51
789.511	1852.34
789.819	1802.76
790.126	1768.76
790.434	1786.04
790.741	1821.15
791.049	1753.15
791.356	1675.31
791.663	1557.71
791.97	1619.19
792.277	1603.55
792.584	1813.9
792.891	2294.06
793.198	2713.43
793.505	2911.15
793.812	2726.64
794.119	2619.21
794.425	2461.92
794.732	2269.15
795.038	1896.6
795.345	1533.39
795.651	1395.67
795.958	1394.55
796.264	1528.07
796.57	1734.74
796.876	1810.56
797.183	1720.79
797.489	1542.61
797.795	1526.95
798.101	1554.64
798.406	1541.5
798.712	1467.08
799.018	1405.2
799.324	1357.84
799.629	1342.42
799.935	1324.75
800.24	1314.94
800.546	1313.82
800.851	1244.5
801.157	1153.76
801.462	1113.84
801.767	1090.21
802.072	1232.99
802.377	1350.55
802.682	1366.81
802.987	1334.01
803.292	1217.83
803.597	1166.13
803.902	1210.8
804.207	1204.06
804.511	1236.08
804.816	1368.21
805.12	1625.89
805.425	1851.78
805.729	1877.4
806.034	1748.68
806.338	1575.32
806.642	1471.84
806.946	1452.8
807.251	1496.74
807.555	1519.12
807.859	1529.75
808.162	1481.07
808.466	1365.41
808.77	1272.57
809.074	1227.37
809.378	1194.23
809.681	1155.17
809.985	1194.79
810.288	1159.39
810.592	1153.76
810.895	1063.19
811.198	1022.09
811.502	964.62
811.805	898.92
812.108	979.55
812.411	1069.38
812.714	1234.39
813.017	1406.32
813.32	1425.92
813.623	1323.91
813.926	1144.21
814.228	1030.54
814.531	956.16
814.833	885.94
815.136	905.41
815.438	913.02
815.741	957.29
816.043	1007.16
816.345	1059.53
816.648	1043.21
816.95	1000.4
817.252	939.81
817.554	918.1
817.856	915.28
818.158	858.85
818.46	843.89
818.761	842.2
819.063	872.4
819.365	916.41
819.666	1047.99
819.968	1120.3
820.269	1163.88
820.571	1107.37
820.872	984.62
821.173	937.27
821.475	849.54
821.776	885.38
822.077	846.15
822.378	845.58
822.679	837.68
822.98	802.94
823.281	818.48
823.581	769.04
823.882	789.67
824.183	813.68
824.483	850.95
824.784	884.53
825.084	940.38
825.385	894.69
825.685	912.46
825.985	845.02
826.286	861.67
826.586	905.13
826.886	918.95
827.186	899.77
827.486	881.99
827.786	832.03
828.086	800.4
828.386	857.72
828.685	852.36
828.985	818.76
829.285	789.67
829.584	754.63
829.884	698.92
830.183	697.51
830.482	680.53
830.782	635.24
831.081	620.8
831.38	614.57
831.679	629.02
831.978	677.7
832.277	691.85
832.576	736.82
832.875	718.44
833.174	687.04
833.472	709.1
833.771	744.45
834.07	750.39
834.368	710.23
834.667	705.71
834.965	684.21
835.263	667.23
835.562	674.31
835.86	659.59
836.158	590.21
836.456	616.84
836.754	588.51
837.052	591.91
837.35	578.6
837.648	591.63
837.946	567.26
838.243	574.35
838.541	572.93
838.839	602.96
839.136	642.04
839.434	642.89
839.731	590.5
840.028	621.94
840.326	635.53
840.623	583.98
840.92	579.45
841.217	525.3
841.514	564.71
841.811	566.98
842.108	555.36
842.405	550.25
842.701	549.97
842.998	540.05
843.295	564.43
843.591	540.33
843.888	520.77
844.184	532.11
844.481	536.65
844.777	559.89
845.073	529.56
845.369	552.24
845.665	555.36
845.962	544.02
846.258	520.48
846.553	519.63
846.849	518.78
847.145	562.16
847.441	561.31
847.737	566.69
848.032	554.51
848.328	542.03
848.623	540.9
848.919	541.75
849.214	540.9
849.509	520.48
849.805	510.27
850.1	536.93
850.395	518.22
850.69	514.24
850.985	535.51
851.28	500.06
851.575	532.68
851.869	540.62
852.164	571.51
852.459	592.2
852.753	639.49
853.048	654.21
853.342	674.31
853.637	711.08
853.931	706.56
854.225	679.97
854.52	677.7
854.814	649.68
855.108	634.68
855.402	613.72
855.696	624.77
855.99	612.87
856.283	597.29
856.577	624.2
856.871	565.28
857.164	583.41
857.458	615.99
857.751	589.08
858.045	574.06
858.338	588.51
858.632	526.16
858.925	551.1
859.218	542.88
859.511	512.54
859.804	539.77
860.097	540.62
860.39	531.54
860.683	534.66
860.976	517.08
861.268	527.01
861.561	537.5
861.854	510.84
862.146	524.45
862.439	500.91
862.731	500.63
863.023	521.62
863.316	517.65
863.608	535.51
863.9	514.53
864.192	548.27
864.484	533.24
864.776	531.54
865.068	510.27
865.36	519.07
865.651	495.24
865.943	508.57
866.235	521.62
866.526	509.71
866.818	527.01
867.109	530.13
867.4	504.88
867.692	498.93
867.983	508.57
868.274	517.65
868.565	515.66
868.856	510.56
869.147	501.2
869.438	493.25
869.729	498.64
870.02	499.78
870.31	495.81
870.601	462.61
870.892	486.45
871.182	519.35
871.473	510.27
871.763	511.41
872.053	513.11
872.343	529.56
872.634	494.67
872.924	522.47
873.214	504.88
873.504	498.36
873.794	517.93
874.084	487.86
874.373	491.55
874.663	485.59
874.953	508.86
875.242	490.13
875.532	485.31
875.821	470.27
876.111	506.87
876.4	494.67
876.689	491.27
876.978	508.86
877.268	500.91
877.557	515.66
877.846	486.45
878.134	510.84
878.423	510.84
878.712	510.84
