Data from FLMS007011_11-39-57-995.txt Node
Date: Thu Apr 21 11:39:57 MDT 2016
User: lab_user
Spectrometer: FLMS00701
Autoset integration time: false
Trigger mode: 0
Integration Time (sec): 5.000000E-3
Scans to average: 10
Electric dark correction enabled: true
Nonlinearity correction enabled: true
Boxcar width: 0
XAxis mode: Wavelengths
Stop averaging: false
Number of Pixels in Spectrum: 2048
>>>>>Begin Spectral Data<<<<<
178.41	40.46
178.791	40.46
179.172	40.46
179.553	-43.82
179.934	-71.27
180.316	-70.7
180.697	-59.26
181.078	-61.55
181.459	-49.82
181.84	-51.25
182.221	-47.25
182.602	8.19
182.983	7.62
183.364	26.47
183.744	51.6
184.125	49.31
184.506	89.84
184.887	100.11
185.268	147.17
185.648	155.15
186.029	164.55
186.41	203.31
186.791	225.24
187.171	284.16
187.552	323.13
187.932	352.13
188.313	377.71
188.694	412.09
189.074	428.56
189.455	464.33
189.835	458.93
190.216	444.46
190.596	454.68
190.977	478.23
191.357	547.15
191.737	519.37
192.118	522.77
192.498	522.77
192.878	558.49
193.258	572.09
193.639	546.87
194.019	546.87
194.399	577.76
194.779	568.41
195.159	550.55
195.54	587.39
195.92	585.98
196.3	581.73
196.68	587.11
197.06	569.54
197.44	589.94
197.82	579.74
198.2	598.44
198.58	587.39
198.959	577.76
199.339	582.29
199.719	563.03
200.099	608.92
200.479	600.71
200.858	611.76
201.238	617.42
201.618	598.16
201.998	606.94
202.377	613.74
202.757	592.49
203.136	584.56
203.516	634.13
203.896	608.36
204.275	608.92
204.655	609.49
205.034	614.31
205.414	625.35
205.793	612.04
206.172	638.37
206.552	625.35
206.931	613.17
207.31	634.13
207.69	626.2
208.069	657.06
208.448	653.1
208.827	630.16
209.207	649.13
209.586	688.19
209.965	673.19
210.344	650.55
210.723	697.52
211.102	693.28
211.481	724.11
211.86	728.35
212.239	718.17
212.618	731.18
212.997	758.03
213.376	781.21
213.755	760.01
214.134	789.68
214.513	788.55
214.891	802.96
215.27	796.18
215.649	842.78
216.028	852.38
216.406	847.29
216.785	865.92
217.164	868.46
217.542	907.4
217.921	928.83
218.3	941.8
218.678	947.72
219.057	930.24
219.435	968.58
219.814	974.5
220.192	1049.7
220.57	1031.4
220.949	1058.14
221.327	1091.35
221.705	1121.16
222.084	1158.56
222.462	1187.22
222.84	1204.64
223.218	1238.34
223.597	1274.55
223.975	1292.79
224.353	1328.41
224.731	1357.01
225.109	1397.65
225.487	1407.45
225.865	1436.02
226.243	1500.96
226.621	1521.38
226.999	1573.66
227.377	1617.25
227.755	1638.48
228.133	1656.9
228.511	1729.18
228.889	1757.9
229.266	1841.5
229.644	1857.37
230.022	1896.06
230.4	1931.67
230.777	2001.18
231.155	2006.18
231.533	2077.57
231.91	2113.93
232.288	2175.78
232.665	2172.18
233.043	2259.47
233.42	2334.21
233.798	2361.32
234.175	2430.99
234.553	2444.53
234.93	2504.74
235.307	2538.14
235.685	2601.03
236.062	2628.32
236.439	2697.47
236.816	2716.47
237.194	2808.65
237.571	2852.64
237.948	2880.67
238.325	2979.52
238.702	3012.44
239.079	3043.43
239.456	3068.92
239.833	3114.14
240.21	3226.65
240.587	3242.78
240.964	3353.2
241.341	3351.56
241.718	3427.73
242.095	3472.2
242.472	3482.29
242.849	3569.77
243.225	3593.74
243.602	3654.99
243.979	3704.77
244.356	3740.93
244.732	3763.76
245.109	3839.01
245.486	3931.81
245.862	3974.38
246.239	4019.09
246.615	4045.37
246.992	4123.88
247.368	4157.69
247.745	4229.34
248.121	4210.69
248.497	4277.7
248.874	4382.44
249.25	4458.21
249.626	4488.66
250.003	4516.68
250.379	4609.55
250.755	4589.91
251.131	4700.71
251.507	4769.76
251.884	4805.74
252.26	4847.61
252.636	4867.2
253.012	4901.8
253.388	5002.57
253.764	5066.57
254.14	5066.84
254.516	5126.24
254.892	5158.6
255.268	5196.3
255.643	5177.59
256.019	5261.49
256.395	5356.8
256.771	5382.14
257.147	5458.13
257.522	5496.5
257.898	5543.65
258.274	5568.14
258.649	5560.15
259.025	5592.63
259.4	5583.58
259.776	5702.74
260.151	5657.28
260.527	5710.98
260.902	5732.78
261.278	5796.27
261.653	5817.51
262.028	5840.34
262.404	5901.37
262.779	5874.31
263.154	5943.27
263.53	6003.71
263.905	5996.29
264.28	5994.96
264.655	5980.12
265.03	6049.8
265.405	6073.9
265.781	6102.23
266.156	6133.46
266.531	6153.84
266.906	6212.02
267.281	6244.01
267.655	6163.1
268.03	6195.36
268.405	6253.79
268.78	6299.77
269.155	6271.76
269.53	6306.11
269.904	6284.97
270.279	6338.86
270.654	6358.66
271.029	6375.03
271.403	6391.92
271.778	6376.09
272.152	6391.4
272.527	6366.32
272.901	6454.45
273.276	6486.36
273.65	6523.8
274.025	6489.79
274.399	6480.04
274.774	6542.78
275.148	6579.93
275.522	6583.35
275.897	6606.79
276.271	6576.24
276.645	6669.98
277.019	6665.24
277.393	6711.03
277.768	6632.33
278.142	6704.45
278.516	6630.23
278.89	6698.93
279.264	6765.74
279.638	6765.74
280.012	6807.54
280.386	6726.55
280.76	6732.07
281.133	6775.73
281.507	6799.65
281.881	6927.58
282.255	6934.15
282.629	6822.78
283.002	6837.5
283.376	6909.99
283.75	6916.82
284.123	6852.47
284.497	6895.29
284.87	6952.26
285.244	6980.34
285.618	6958.82
285.991	6940.71
286.364	6916.03
286.738	6905.53
287.111	6933.88
287.485	6973.25
287.858	6885.04
288.231	6949.63
288.605	6951.73
288.978	7015.49
289.351	6893.45
289.724	6989.78
290.097	6926.27
290.47	6997.39
290.843	6952.52
291.217	6871.91
291.59	6909.47
291.963	6881.1
292.336	6920.76
292.708	6877.43
293.081	6812
293.454	6908.68
293.827	6882.68
294.2	6787.56
294.573	6810.43
294.945	6770.47
295.318	6798.6
295.691	6799.12
296.064	6742.33
296.436	6781.77
296.809	6806.48
297.181	6779.41
297.554	6750.75
297.926	6741.54
298.299	6702.87
298.671	6785.46
299.044	6817.52
299.416	6666.29
299.788	6737.86
300.161	6766
300.533	6717.08
300.905	6741.28
301.278	6763.11
301.65	6888.98
302.022	6712.34
302.394	6736.81
302.766	6781.77
303.138	6687.87
303.51	6825.93
303.882	6803.59
304.254	6809.38
304.626	6851.68
304.998	6845.9
305.37	6795.71
305.742	6852.21
306.114	6870.86
306.485	6848.27
306.857	6857.46
307.229	6816.21
307.601	6786.77
307.972	6678.93
308.344	6570.18
308.716	6523.01
309.087	6425.96
309.459	6370.01
309.83	6324.33
310.202	6211.23
310.573	6176.85
310.945	6070.46
311.316	5937.7
311.687	5917.02
312.059	5794.94
312.43	5777.14
312.801	5811.14
313.172	5827.86
313.544	5942.74
313.915	6120.76
314.286	6243.22
314.657	6409.87
315.028	6584.4
315.399	6875.33
315.77	7022.31
316.141	7197.12
316.512	7472.75
316.883	7583.7
317.254	7746.39
317.625	7714.86
317.996	7793.01
318.366	7737.27
318.737	7602.74
319.108	7524.19
319.478	7220.68
319.849	7064.01
320.22	6951.21
320.59	6764.68
320.961	6672.08
321.331	6644.45
321.702	6597.57
322.072	6781.77
322.443	7042.77
322.813	7303.11
323.184	7657.77
323.554	8112.87
323.924	8438.3
324.295	8805.19
324.665	9298.84
325.035	9799.05
325.405	10139.06
325.775	10613.81
326.145	10879.72
326.515	11317.4
326.886	11622.6
327.256	11857.52
327.626	12013.35
327.995	12166.28
328.365	12455.87
328.735	12576.46
329.105	12492.89
329.475	12507.74
329.845	12485.08
330.215	12753.31
330.584	13230.71
330.954	13892.37
331.324	14715.62
331.693	15256.07
332.063	15714.54
332.432	16144.04
332.802	16073.86
333.171	15834.19
333.541	15465.64
333.91	15238.16
334.28	15131.69
334.649	15000.54
335.018	15013.49
335.388	14912.41
335.757	14774.17
336.126	14587.99
336.495	14518.17
336.865	14329.06
337.234	14125.31
337.603	14002.37
337.972	13948.63
338.341	13973.63
338.71	13926.63
339.079	13899.63
339.448	14002.62
339.817	14131.05
340.186	14217.22
340.554	14247.93
340.923	14415.65
341.292	14510.19
341.661	14602.21
342.029	14729.32
342.398	14658.54
342.767	14532.64
343.135	14788.62
343.504	14739.79
343.872	14820.51
344.241	14873.56
344.609	14717.11
344.978	14764.21
345.346	14767.94
345.715	14692.69
346.083	14620.65
346.451	14622.15
346.82	14502.46
347.188	14493.23
347.556	14416.4
347.924	14416.4
348.292	14294.37
348.66	14217.72
349.028	14113.82
349.396	14042.36
349.764	14115.82
350.132	13935.88
350.5	13819.59
350.868	13730.03
351.236	13699.24
351.604	13553.03
351.972	13480.64
352.34	13276.11
352.707	13212.9
353.075	13110.28
353.443	13057.56
353.81	12868.69
354.178	12754.06
354.545	12745.26
354.913	12709.55
355.28	12515.3
355.648	12494.65
356.015	12350.57
356.383	12280.01
356.75	12055.26
357.117	11952.75
357.485	11907.54
357.852	11810.26
358.219	11693.44
358.586	11585.4
358.954	11419.28
359.321	11394.7
359.688	11221.54
360.055	11183.23
360.422	11043.87
360.789	10960.04
361.156	10838.02
361.523	10716.42
361.89	10636.99
362.256	10568.98
362.623	10363.24
362.99	10300.47
363.357	10264.73
363.724	10080.02
364.09	10013.03
364.457	9872.29
364.823	9860.25
365.19	9715.25
365.557	9642.69
365.923	9555.98
366.29	9374.67
366.656	9338.69
367.022	9236.6
367.389	9239.94
367.755	9087.55
368.121	9007.42
368.488	9015.67
368.854	8904.54
369.22	8928.53
369.586	8815.26
369.952	8807.51
370.318	8772.66
370.684	8692.84
371.051	8798.74
371.416	8714.28
371.782	8642.44
372.148	8674.49
372.514	8640.89
372.88	8632.1
373.246	8620.72
373.612	8649.94
373.977	8699.3
374.343	8776.27
374.709	8834.36
375.074	8772.14
375.44	8752.26
375.806	8662.86
376.171	8652
376.537	8698.78
376.902	8718.16
377.268	8878.23
377.633	8941.42
377.998	9012.83
378.364	9159.65
378.729	9114.33
379.094	9172.52
379.459	8912.79
379.825	8952.77
380.19	8952.77
380.555	8812.68
380.92	8792.54
381.285	8787.89
381.65	8929.04
382.015	8915.37
382.38	8985.51
382.745	8887
383.11	8861.2
383.474	8914.08
383.839	8931.88
384.204	8977
384.569	9014.64
384.933	9026.23
385.298	9041.18
385.663	9161.19
386.027	9245.6
386.392	9324.81
386.756	9387.78
387.121	9533.4
387.485	9723.71
387.849	9878.18
388.214	9765.48
388.578	9726.79
388.942	9626.02
389.307	9692.18
389.671	9780.34
390.035	9890.72
390.399	10072.87
390.763	10243.28
391.127	10382.88
391.492	10723.03
391.856	11072.06
392.219	11353.39
392.583	11390.65
392.947	11051.23
393.311	10850.23
393.675	10974.78
394.039	10961.31
394.403	10986.72
394.766	10938.18
395.13	10967.91
395.494	11024.82
395.857	11249.19
396.221	11433.47
396.584	11748.06
396.948	12023.45
397.311	12481.81
397.675	12741.74
398.038	12882.51
398.401	12535.94
398.765	12286.81
399.128	12113.81
399.491	11971.19
399.854	11900.47
400.218	11913.6
400.581	11992.4
400.944	11950.23
401.307	11716.71
401.67	11900.47
402.033	11941.64
402.396	11976.24
402.759	12126.42
403.122	12156.19
403.485	12314.54
403.847	12587.79
404.21	12804.6
404.573	13006.34
404.936	13273.35
405.298	12977.46
405.661	12717.1
406.023	12545
406.386	12463.93
406.749	12358.13
407.111	12435.72
407.473	12853.61
407.836	13122.07
408.198	13296.67
408.561	13393.19
408.923	13387.42
409.285	13485.15
409.647	13296.42
410.009	13109.27
410.372	13201.86
410.734	13119.06
411.096	13112.28
411.458	13209.39
411.82	13527.74
412.182	13632.91
412.544	13752.3
412.906	13882.62
413.267	13824.35
413.629	13731.53
413.991	13568.81
414.353	13601.61
414.714	13272.85
415.076	13451.33
415.438	13549.78
415.799	13672.21
416.161	13517.47
416.522	13410.73
416.884	13340.05
417.245	13455.84
417.607	13456.34
417.968	13456.59
418.329	13585.09
418.691	13727.52
419.052	13655.69
419.413	13913.88
419.774	14114.32
420.135	14702.91
420.497	15179.46
420.858	15871.42
421.219	15825.01
421.58	15457.93
421.941	15102.08
422.302	14574.03
422.662	14565.31
423.023	14296.86
423.384	14238.44
423.745	14381.97
424.106	14548.6
424.466	14705.9
424.827	14333.05
425.187	13989.88
425.548	13764.81
425.909	13485.15
426.269	13852.86
426.63	13985.13
426.99	14334.8
427.35	14180.26
427.711	14326.31
428.071	14554.33
428.431	15072.97
428.792	16146.77
429.152	17279.06
429.512	17410.05
429.872	17207.87
430.232	16806.92
430.592	15928.99
430.952	14999.3
431.312	14405.17
431.672	13989.63
432.032	13905.63
432.392	14326.56
432.752	15740.36
433.111	16583.38
433.471	16402.31
433.831	15192.4
434.19	15063.76
434.55	15075.46
434.91	14804.81
435.269	15151.35
435.629	15304.56
435.988	15454.21
436.348	15057.54
436.707	14590.74
437.066	14561.81
437.426	14812.54
437.785	15025.93
438.144	14983.37
438.503	14868.08
438.862	14702.91
439.222	14511.69
439.581	14335.8
439.94	14634.86
440.299	15663.13
440.658	16451.36
441.017	16725.24
441.376	16491.49
441.734	16020.04
442.093	15838.66
442.452	16156.68
442.811	16418.16
443.169	16383.23
443.528	15885.56
443.887	15680.27
444.245	15683.5
444.604	15347.07
444.962	15230.7
445.321	15234.43
445.679	15403.25
446.038	15529.25
446.396	15097.36
446.754	14731.81
447.112	14655.05
447.471	14482.51
447.829	14363.25
448.187	14428.63
448.545	14516.18
448.903	14439.6
449.261	14303.1
449.619	14168.27
449.977	14096.58
450.335	13795.58
450.693	13696.74
451.051	13768.81
451.409	13704.5
451.766	13677.97
452.124	13326.26
452.482	12973.7
452.839	12787
453.197	12621.01
453.555	12574.95
453.912	12588.8
454.27	12941.8
454.627	13327.01
454.984	13297.67
455.342	13045.51
455.699	12732.94
456.056	12731.43
456.414	13012.12
456.771	13449.32
457.128	13550.28
457.485	13795.33
457.842	13643.18
458.199	13791.58
458.556	13899.88
458.913	13894.62
459.27	14130.8
459.627	13656.94
459.984	13767.06
460.341	13908.13
460.697	13725.77
461.054	12980.23
461.411	12407.26
461.767	12026.99
462.124	12072.93
462.481	12395.17
462.837	12731.94
463.194	13390.43
463.55	13158.96
463.907	13872.62
464.263	14325.32
464.619	14832.21
464.976	15327.18
465.332	15325.2
465.688	14673.25
466.044	13622.65
466.4	13237.23
466.756	12936.27
467.112	12925.22
467.468	12950.84
467.824	12765.63
468.18	12450.33
468.536	12359.65
468.892	12011.59
469.248	11837.3
469.604	11716.71
469.959	11758.68
470.315	11757.17
470.671	11805.2
471.026	11903.5
471.382	12188.48
471.737	12434.72
472.093	12695.72
472.448	13226.2
472.804	13620.14
473.159	13773.31
473.514	13771.31
473.87	13938.13
474.225	14671.01
474.58	15385.36
474.935	15446
475.29	15011.74
475.645	14856.37
476	14756.48
476.355	14596.97
476.71	14441.1
477.065	15222.99
477.42	15788.77
477.775	15783.8
478.13	15581.17
478.485	15781.07
478.839	16074.11
479.194	16937.81
479.549	17343.08
479.903	17481.45
480.258	17076.82
480.612	17447.36
480.967	18392.41
481.321	18446.16
481.675	17733.38
482.03	17065.69
482.384	16865.32
482.738	17117.87
483.093	17341.84
483.447	18087.56
483.801	19260.9
484.155	19854.97
484.509	23418.46
484.863	51720.9
485.217	66009.51
485.571	66785.65
485.925	44752.26
486.279	31752.2
486.632	26453.12
486.986	22502.33
487.34	19636.5
487.694	18374.66
488.047	17976.52
488.401	17965.17
488.754	17735.84
489.108	17250.39
489.461	17077.81
489.815	16668.8
490.168	16945.48
490.522	17127.02
490.875	17110.7
491.228	16890.56
491.581	17076.58
491.935	17085.97
492.288	16876.95
492.641	17167.08
492.994	17035.77
493.347	17634.35
493.7	17671.64
494.053	17510.85
494.406	17002.13
494.759	16394.13
495.111	17133.7
495.464	18670.97
495.817	19545.45
496.169	18806.25
496.522	17251.13
496.875	15966.21
497.227	15683.75
497.58	15656.93
497.932	16042.36
498.285	16213.46
498.637	16948.7
498.989	17514.8
499.342	17403.13
499.694	16694.3
500.046	16179.74
500.398	16898.72
500.751	17407.82
501.103	17468.85
501.455	17491.09
501.807	17565.69
502.159	17526.17
502.511	17498.75
502.862	17507.39
503.214	16950.68
503.566	16368.12
503.918	15895.49
504.27	15946.11
504.621	16059.23
504.973	15840.4
505.324	15938.67
505.676	16483.57
506.027	16549.94
506.379	15598.31
506.73	14979.38
507.082	15208.31
507.433	15642.52
507.784	15920.3
508.136	15549.62
508.487	15250.1
508.838	14865.84
509.189	14896.97
509.54	15302.32
509.891	15033.4
510.242	15019.71
510.593	14836.7
510.944	14560.07
511.295	14144.79
511.646	13832.1
511.996	13938.63
512.347	14090.33
512.698	14164.27
513.049	13949.38
513.399	13782.32
513.75	13856.36
514.1	13525.23
514.451	13065.1
514.801	12829.98
515.152	13055.05
515.502	13521.47
515.852	13855.11
516.202	13829.6
516.553	13522.98
516.903	13023.42
517.253	12685.66
517.603	12565.14
517.953	12663.78
518.303	13278.11
518.653	13667.21
519.003	13532.75
519.353	12638.62
519.703	11962.6
520.052	11817.33
520.402	11987.85
520.752	12241.68
521.102	11995.18
521.451	11744.52
521.801	11841.85
522.15	12010.83
522.5	12175.87
522.849	12217.48
523.199	12486.34
523.548	12610.44
523.897	12552.05
524.246	12137.02
524.596	11806.97
524.945	11791.8
525.294	11848.42
525.643	11885.81
525.992	11951.49
526.341	12136.26
526.69	11937.09
527.039	11823.4
527.388	11544.39
527.737	12120.11
528.086	13137.88
528.434	13752.3
528.783	13256.8
529.132	12626.54
529.48	12295.89
529.829	12076.96
530.177	12005.28
530.526	11814.3
530.874	11992.65
531.223	11978.76
531.571	11877.98
531.919	11943.16
532.268	12684.15
532.616	13642.17
532.964	14124.56
533.312	14131.8
533.66	13984.88
534.008	14067.35
534.356	14113.57
534.704	13958.13
535.052	13579.58
535.4	13059.82
535.748	12415.83
536.095	11775.62
536.443	11604.13
536.791	12023.71
537.139	12594.08
537.486	13285.39
537.834	13477.13
538.181	13649.18
538.529	13617.14
538.876	13543.77
539.223	13297.92
539.571	12722.88
539.918	12734.2
540.265	13184.55
540.613	13581.83
540.96	13424.77
541.307	13300.43
541.654	13202.87
542.001	13244.01
542.348	13283.63
542.695	13188.57
543.042	13655.69
543.388	13852.11
543.735	14059.1
544.082	14115.32
544.429	14011.12
544.775	13479.64
545.122	12763.87
545.469	12247.99
545.815	12266.64
546.162	12418.85
546.508	13025.93
546.854	13880.37
547.201	14886.01
547.547	15361.74
547.893	14826.73
548.24	13680.97
548.586	12262.86
548.932	11913.86
549.278	11738.46
549.624	11950.48
549.97	11807.47
550.316	11245.38
550.662	10987.48
551.008	11868.89
551.353	13363.36
551.699	14369.99
552.045	13865.87
552.391	13015.38
552.736	12899.59
553.082	12789.01
553.427	12645.66
553.773	11728.09
554.118	11505.15
554.464	12083.02
554.809	12919.44
555.154	13642.17
555.5	13620.14
555.845	12695.97
556.19	12070.15
556.535	11420.04
556.88	11739.72
557.225	11918.91
557.57	11530.21
557.915	10950.38
558.26	10690.2
558.605	10654.81
558.95	10996.37
559.295	12108.51
559.639	13145.91
559.984	14234.45
560.329	14538.87
560.673	14548.85
561.018	13813.09
561.362	13108.27
561.707	12467.46
562.051	12556.08
562.395	12785.99
562.74	13533
563.084	13781.82
563.428	14449.58
563.772	14359.26
564.117	14532.14
564.461	14686.71
564.805	14320.82
565.149	14504.46
565.493	14579.52
565.836	15040.86
566.18	15336.88
566.524	17422.16
566.868	18698.32
567.212	19541.51
567.555	19754.6
567.899	21620.73
568.242	23538.45
568.586	26585.69
568.929	30361.77
569.273	34261.69
569.616	35063.95
569.96	36009.29
570.303	38413.86
570.646	39534.62
570.989	41862.94
571.333	41495.68
571.676	39266.55
572.019	33483.36
572.362	35727.86
572.705	41308.56
573.048	46542.9
573.391	49661.77
573.733	51450.79
574.076	52800.16
574.419	50655.08
574.762	45853.27
575.104	40634.06
575.447	39717.2
575.789	44390.94
576.132	50582.51
576.474	51391.79
576.817	58814.3
577.159	66005.27
577.501	67311.71
577.844	60396.29
578.186	48707.57
578.528	43372.86
578.87	42846.15
579.212	44887.19
579.554	48536.32
579.896	48155.56
580.238	52335.78
580.58	66737.21
580.922	68791.22
581.264	68791.22
581.606	68791.22
581.947	63238.78
582.289	52610.34
582.631	42576.26
582.972	36679.41
583.314	36644.05
583.655	38543.15
583.997	45435.22
584.338	52862.6
584.679	57988.27
585.021	56952.55
585.362	49977.74
585.703	43354.85
586.044	41197.61
586.385	45489.54
586.726	50099.88
587.067	48416.39
587.408	43246.29
587.749	39524.95
588.09	36141.5
588.431	32619.22
588.772	29608.54
589.113	30051.53
589.453	30552.23
589.794	29222.24
590.134	26430.04
590.475	24736.61
590.815	24912.06
591.156	25144.93
591.496	25765.33
591.837	34138.81
592.177	41911.77
592.517	47466.13
592.857	43948.95
593.198	39144.08
593.538	32325.47
593.878	29505.26
594.218	30598.99
594.558	33569.19
594.898	32306.25
595.237	29280.27
595.577	25651.46
595.917	22913.68
596.257	24147.47
596.596	25314.26
596.936	26980.25
597.276	25040.64
597.615	25158.67
597.955	31520.2
598.294	37160.43
598.633	37986.71
598.973	35429.45
599.312	34826.18
599.651	34850.13
599.991	33380.77
600.33	32523.85
600.669	30621.88
601.008	28952.06
601.347	26745.27
601.686	27835.92
602.025	27669.37
602.364	30132.47
602.702	31374.91
603.041	31427.11
603.38	29074.48
603.719	26616.87
604.057	24759.68
604.396	24597.73
604.734	26153.14
605.073	31142.24
605.411	31125
605.75	29629.94
606.088	26398.62
606.426	27136.91
606.764	28024.84
607.103	27145.02
607.441	24956.72
607.779	23755.61
608.117	23961.23
608.455	22490.8
608.793	21404.37
609.131	23962.95
609.469	25683.85
609.806	25761.16
610.144	22352.36
610.482	21309.81
610.819	21688.51
611.157	21253.31
611.495	20162.4
611.832	19620.75
612.17	19806.26
612.507	20394.25
612.844	20022.97
613.182	19960.99
613.519	20065.76
613.856	20294.19
614.193	20381.96
614.53	21557.37
614.867	21858.42
615.205	20113.96
615.541	18679.35
615.878	16937.07
616.215	17202.68
616.552	16866.31
616.889	17422.4
617.226	18096.93
617.562	17239.27
617.899	15407.98
618.235	13951.13
618.572	12680.63
618.908	13342.3
619.245	14521.42
619.581	15258.55
619.918	13698.99
620.254	10753.57
620.59	9905.31
620.926	11121.81
621.262	12509.26
621.599	12804.34
621.935	12861.15
622.271	13890.62
622.606	14523.66
622.942	14286.63
623.278	13322.25
623.614	14229.95
623.95	14665.52
624.285	14206.48
624.621	13030.7
624.957	12010.33
625.292	11495.02
625.628	10711.83
625.963	10365.79
626.299	10867.52
626.634	11160.39
626.969	11010.34
627.304	9544.69
627.64	8176.99
627.975	8235.63
628.31	9017.21
628.645	9835.93
628.98	9444.81
629.315	9156.56
629.65	8939.1
629.985	8984.99
630.319	8322.75
630.654	7985.29
630.989	8113.9
631.323	7777.38
631.658	7399.34
631.993	6756.01
632.327	6552
632.662	6566.75
632.996	6877.43
633.33	7128.49
633.665	6792.03
633.999	6315.09
634.333	6255.11
634.667	6242.69
635.001	6497.44
635.335	6937.03
635.669	7536.98
636.003	7523.67
636.337	6883.99
636.671	6289.2
637.005	5848.3
637.339	5828.39
637.672	6188.49
638.006	6600.21
638.339	6454.45
638.673	6131.08
639.006	5764.93
639.34	5681.21
639.673	5528.2
640.007	5519.94
640.34	5399.74
640.673	5274.85
641.006	5196.3
641.34	5023.2
641.673	4777.55
642.006	4593.41
642.339	4784.53
642.672	4866.13
643.004	4738.6
643.337	4593.94
643.67	4478.69
644.003	4588.02
644.336	4638.6
644.668	4570.26
645.001	4506.98
645.333	4364.9
645.666	4190.42
645.998	3918.25
646.331	3854.48
646.663	3881.08
646.995	4258.25
647.327	5009.81
647.66	5729.06
647.992	5952.82
648.324	6105.67
648.656	5981.18
648.988	5604.07
649.32	4994
649.652	4465.21
649.983	4208.26
650.315	4127.12
650.647	4231.23
650.979	4657.16
651.31	5056.67
651.642	5307.42
651.973	5353.86
652.305	5398.94
652.636	5327.71
652.967	5120.89
653.299	4858.88
653.63	4863.18
653.961	5439.74
654.292	8161.42
654.623	51344.75
654.955	68791.22
655.286	68791.22
655.616	68791.22
655.947	68791.22
656.278	68791.22
656.609	68791.22
656.94	45302.16
657.27	32344.44
657.601	24310.15
657.932	17214.05
658.262	11578.31
658.593	7851.07
658.923	5530.6
659.254	4424.51
659.584	3871.58
659.914	3487.74
660.244	3310.31
660.575	3275.6
660.905	3302.11
661.235	3385.15
661.565	3421.73
661.895	3484.2
662.225	3379.42
662.555	3311.13
662.884	3314.41
663.214	3447.65
663.544	3510.64
663.873	3625.32
664.203	3685.19
664.533	3886.51
664.862	4013.13
665.192	3781.16
665.521	3422.27
665.85	3208.59
666.18	2944.94
666.509	2908.69
666.838	3081.26
667.167	3193.54
667.496	3175.47
667.825	3092.49
668.154	3085.37
668.483	3122.63
668.812	3214.88
669.141	3318.23
669.47	3424.18
669.798	3405.08
670.127	3273.68
670.456	3606.54
670.784	4459.55
671.113	5268.44
671.441	5967.66
671.77	5977.21
672.098	5535.66
672.426	4628.11
672.755	3991.18
673.083	3794.47
673.411	3743.11
673.739	3664.79
674.067	3370.68
674.395	3310.04
674.723	3423.09
675.051	3605.18
675.379	3541.44
675.706	3557.79
676.034	3400.17
676.362	3294.73
676.689	3664.51
677.017	4257.44
677.344	4651.78
677.672	4663.08
677.999	4446.35
678.327	4604.71
678.654	5033.1
678.981	5342.39
679.308	5405.08
679.636	5004.98
679.963	4565.41
680.29	4280.94
680.617	4430.98
680.944	4618.16
681.271	4538.49
681.597	3984.41
681.924	3548.52
682.251	3427.19
682.578	3748
682.904	4260.68
683.231	4738.07
683.557	4957.56
683.884	5195.23
684.21	5538.05
684.536	5906.14
684.863	6122.35
685.189	5971.37
685.515	5501.83
685.841	5042.48
686.167	4961.05
686.493	5139.62
686.819	5142.56
687.145	4709.31
687.471	4147.96
687.797	3737.13
688.123	3741.48
688.448	4019.09
688.774	4278.51
689.1	4192.85
689.425	3908.76
689.751	3753.17
690.076	4041.31
690.402	4638.07
690.727	5054.52
691.052	4950.06
691.377	4558.68
691.703	4385.94
692.028	4337.91
692.353	4462.79
692.678	4481.65
693.003	4299.85
693.328	3735.23
693.652	3289.81
693.977	3338.73
694.302	3738.76
694.627	3987.12
694.951	3740.66
695.276	3247.16
695.6	2970.19
695.925	3629.95
696.249	4723.29
696.574	5424.54
696.898	5275.11
697.222	4680.55
697.546	4242.85
697.871	4022.89
698.195	3937.78
698.519	3768.93
698.843	3628.32
699.167	3374.78
699.491	3039.86
699.814	3007.78
700.138	2983.08
700.462	2922.42
700.786	2911.99
701.109	3026.43
701.433	3286.53
701.756	3540.08
702.08	3634.58
702.403	3519.64
702.726	3241.14
703.05	3075.78
703.373	2994.33
703.696	2912.81
704.019	2827.08
704.342	2608.47
704.665	2418
704.988	2384.55
705.311	2590.82
705.634	3183.14
705.957	3978.99
706.28	4668.99
706.602	4986.23
706.925	4806.55
707.247	4456.32
707.57	4043.75
707.892	3821.09
708.215	3509.55
708.537	3253.18
708.859	3182.87
709.182	3273.14
709.504	3447.38
709.826	3600.82
710.148	3547.16
710.47	3372.86
710.792	3183.96
711.114	2981.16
711.436	2777.02
711.758	2874.63
712.079	2890.29
712.401	3183.41
712.723	3453.38
713.044	3819.46
713.366	4051.87
713.687	4019.91
714.009	3798.54
714.33	3642.47
714.652	3465.65
714.973	3252.9
715.294	2945.76
715.615	2654.78
715.936	2472.71
716.257	2449.78
716.578	2394.78
716.899	2495.35
717.22	2827.9
717.541	2998.45
717.862	3065.36
718.182	3048.64
718.503	3146.18
718.824	3130.84
719.144	3031.36
719.465	2825.43
719.785	2898.8
720.105	3011.89
720.426	3109.48
720.746	3079.34
721.066	3011.62
721.386	2971.29
721.706	2788.03
722.026	2697.47
722.346	2657.53
722.666	2709.04
722.986	2823.78
723.306	2803.98
723.626	2682.05
723.946	2685.91
724.265	2943.84
724.585	3278.06
724.904	3392.8
725.224	3403.17
725.543	3414.91
725.863	3323.15
726.182	3178.76
726.501	2956.19
726.82	2925.72
727.14	3140.98
727.459	3348.83
727.778	3390.07
728.097	3323.7
728.416	3340.91
728.734	3580.12
729.053	3711.3
729.372	3685.19
729.691	3807.51
730.009	4254.47
730.328	4564.34
730.647	4608.47
730.965	4400.78
731.283	4129.02
731.602	3866.42
731.92	3952.69
732.238	4168.24
732.557	4240.96
732.875	4421.27
733.193	4927.81
733.511	5408.81
733.829	5184.8
734.147	4615.47
734.465	4167.7
734.782	4111.97
735.1	4309.3
735.418	4304.17
735.735	4324.69
736.053	4411.3
736.371	4333.32
736.688	4039.41
737.005	3669.14
737.323	3308.94
737.64	3261.93
737.957	3521.55
738.274	4191.23
738.592	4592.87
738.909	4387.83
739.226	3796.64
739.543	3208.86
739.86	2895.78
740.176	2733.54
740.493	2521.3
740.81	2463.59
741.127	2475.47
741.443	2717.85
741.76	2988.57
742.076	2964.15
742.393	2785.82
742.709	2453.37
743.025	2328.68
743.342	2349.15
743.658	2436.79
743.974	2559.66
744.29	2541.45
744.606	2527.92
744.922	2506.67
745.238	2486.24
745.554	2368.79
745.87	2351.64
746.186	2449.23
746.501	2686.18
746.817	2618.12
747.132	2381.23
747.448	2149.71
747.763	2145
748.079	2274.42
748.394	2677.37
748.71	3082.35
749.025	3531.63
749.34	3689.54
749.655	3631.04
749.97	3382.42
750.285	3326.43
750.6	3422.27
750.915	3562.42
751.23	3577.67
751.545	3320.15
751.859	3038.22
752.174	2903.75
752.489	3198.19
752.803	3508.73
753.118	3706.68
753.432	3538.99
753.747	3308.4
754.061	3388.97
754.375	3648.73
754.689	3957.84
755.004	4063.24
755.318	4203.12
755.632	4518.02
755.946	4790.98
756.26	5113.94
756.573	5711.51
756.887	6079.2
757.201	6017.49
757.515	5090.93
757.828	4449.04
758.142	4305.79
758.455	4845.47
758.769	5472.26
759.082	5792.02
759.396	6040.8
759.709	6151.72
760.022	6143.52
760.335	5654.35
760.648	4954.35
760.962	4302.82
761.275	3791.21
761.587	3665.87
761.9	3683.29
762.213	3783.33
762.526	4124.69
762.839	4167.97
763.151	4343.04
763.464	4795.27
763.776	5567.61
764.089	5976.15
764.401	5658.87
764.714	5155.39
765.026	4529.6
765.338	3990.64
765.65	3473.02
765.962	3088.93
766.275	2805.9
766.587	2739.05
766.898	2879.02
767.21	3297.74
767.522	3802.07
767.834	4168.24
768.146	4113.32
768.457	3841.99
768.769	3417.91
769.08	3252.08
769.392	3530.54
769.703	3859.64
770.015	4199.88
770.326	4277.43
770.637	4042.93
770.948	3533.26
771.26	3097.42
771.571	3007.23
771.882	3104.27
772.193	3137.69
772.504	2992.96
772.814	2809.75
773.125	2738.77
773.436	2526.27
773.747	2442.32
774.057	2322.03
774.368	2286.05
774.678	2146.38
774.989	2006.74
775.299	1968.94
775.609	1929.73
775.919	1968.66
776.23	2008.96
776.54	2007.85
776.85	1969.77
777.16	2073.4
777.47	2271.1
777.78	2523.23
778.089	2766.84
778.399	2844.94
778.709	2692.52
779.019	2399.2
779.328	2157.48
779.638	2090.61
779.947	2467.18
780.257	2960.86
780.566	3291.45
780.875	3208.59
781.185	2938.07
781.494	2779.22
781.803	2636.59
782.112	2543.93
782.421	2609.3
782.73	2723.08
783.039	2716.75
783.348	2367.13
783.656	2075.9
783.965	1946.41
784.274	2115.04
784.582	2304.32
784.891	2285.77
785.199	2253.93
785.508	2142.5
785.816	2096.16
786.124	2161.92
786.432	2345
786.741	2566.28
787.049	2587.79
787.357	2553.04
787.665	2568.76
787.973	2576.48
788.281	2409.43
788.588	2157.2
788.896	1975.33
789.204	1820.88
789.511	1786.05
789.819	1740.61
790.126	1699.33
790.434	1724.44
790.741	1747.58
791.049	1713.56
791.356	1592.39
791.663	1517.18
791.97	1559.69
792.277	1533.68
792.584	1715.79
792.891	2114.76
793.198	2580.34
793.505	2742.35
793.812	2608.2
794.119	2521.3
794.425	2363.81
794.732	2146.66
795.038	1829.52
795.345	1570.59
795.651	1378.87
795.958	1336.27
796.264	1444.98
796.57	1640.15
796.876	1695.7
797.183	1632.33
797.489	1515.5
797.795	1498.72
798.101	1491.44
798.406	1450.02
798.712	1387.28
799.018	1355.05
799.324	1320
799.629	1328.41
799.935	1305.98
800.24	1281.29
800.546	1270.34
800.851	1211.38
801.157	1137.19
801.462	1078.4
801.767	1126.79
802.072	1167.83
802.377	1279.88
802.682	1319.44
802.987	1303.17
803.292	1193.97
803.597	1162.21
803.902	1167.55
804.207	1192.84
804.511	1223.46
804.816	1321.96
805.12	1545.43
805.425	1745.91
805.729	1823.67
806.034	1691.79
806.338	1524.73
806.642	1448.34
806.946	1421.74
807.251	1483.05
807.555	1481.37
807.859	1483.05
808.162	1464.58
808.466	1345.24
808.77	1263.33
809.074	1185.82
809.378	1159.12
809.681	1158
809.985	1128.19
810.288	1158.56
810.592	1136.35
810.895	1068.56
811.198	1000.42
811.502	950.82
811.805	902.88
812.108	942.08
812.411	1045.76
812.714	1208.01
813.017	1364.58
813.32	1371.31
813.623	1282.69
813.926	1163.34
814.228	1066.87
814.531	941.52
814.833	920.94
815.136	901.19
815.438	940.67
815.741	977.31
816.043	1001.83
816.345	1041.81
816.648	1018.16
816.95	963.22
817.252	966.32
817.554	905.14
817.856	870.72
818.158	817.93
818.46	847.01
818.761	822.45
819.063	854.63
819.365	895.55
819.666	1011.97
819.968	1117.23
820.269	1161.93
820.571	1072.78
820.872	999.29
821.173	952.23
821.475	887.93
821.776	853.22
822.077	848.42
822.378	826.68
822.679	845.6
822.98	836.57
823.281	820.75
823.581	793.07
823.882	815.95
824.183	797.59
824.483	845.32
824.784	888.78
825.084	937.29
825.385	890.75
825.685	872.98
825.985	844.19
826.286	863.95
826.586	865.08
826.886	911.35
827.186	896.68
827.486	851.81
827.786	802.68
828.086	838.54
828.386	838.54
828.685	861.69
828.985	843.91
829.285	788.55
829.584	764.53
829.884	717.89
830.183	719.87
830.482	682.24
830.782	647.43
831.081	619.97
831.38	617.42
831.679	651.11
831.978	665.27
832.277	711.95
832.576	722.69
832.875	717.89
833.174	711.95
833.472	732.31
833.771	731.74
834.07	707.7
834.368	733.72
834.667	700.63
834.965	686.77
835.263	676.02
835.562	676.02
835.86	656.21
836.158	636.68
836.456	596.46
836.754	601.84
837.052	585.41
837.35	584.84
837.648	595.61
837.946	554.81
838.243	595.04
838.541	599.29
838.839	608.36
839.136	614.31
839.434	634.98
839.731	627.62
840.028	631.58
840.326	613.17
840.623	633.56
840.92	583.14
841.217	584.56
841.514	594.76
841.811	580.03
842.108	571.24
842.405	566.99
842.701	557.07
842.998	569.54
843.295	556.22
843.591	560.47
843.888	559.91
844.184	552.25
844.481	556.79
844.777	544.88
845.073	581.44
845.369	582.01
845.665	555.09
845.962	538.65
846.258	541.48
846.553	533.26
846.849	539.5
847.145	547.44
847.441	565.58
847.737	568.98
848.032	526.45
848.328	541.77
848.623	518.51
848.919	518.23
849.214	542.9
849.509	513.69
849.805	529.01
850.1	514.26
850.395	515.39
850.69	517.1
850.985	506.6
851.28	528.72
851.575	547.44
851.869	558.77
852.164	578.89
852.459	601.28
852.753	622.8
853.048	673.19
853.342	714.49
853.637	735.42
853.931	707.99
854.225	696.67
854.52	680.26
854.814	672.34
855.108	676.3
855.402	622.23
855.696	612.32
855.99	617.7
856.283	611.19
856.577	616
856.871	614.59
857.164	623.65
857.458	626.2
857.751	561.61
858.045	577.48
858.338	544.32
858.632	558.21
858.925	540.92
859.218	534.68
859.511	566.14
859.804	523.34
860.097	544.32
860.39	533.26
860.683	498.66
860.976	562.74
861.268	508.02
861.561	532.41
861.854	509.44
862.146	523.9
862.439	508.87
862.731	533.26
863.023	519.65
863.316	525.89
863.608	526.74
863.9	503.48
864.192	532.13
864.484	541.77
864.776	519.08
865.068	513.69
865.36	510.57
865.651	513.13
865.943	530.71
866.235	510.29
866.526	523.34
866.818	510.86
867.109	495.82
867.4	511.71
867.692	484.47
867.983	526.45
868.274	520.5
868.565	519.37
868.856	518.51
869.147	505.75
869.438	527.59
869.729	500.08
870.02	513.98
870.31	481.07
870.601	488.73
870.892	475.39
871.182	503.2
871.473	511.14
871.763	510.29
872.053	516.25
872.343	491
872.634	514.54
872.924	483.62
873.214	474.54
873.504	520.78
873.794	514.54
874.084	508.87
874.373	507.45
874.663	481.64
874.953	507.17
875.242	492.14
875.532	475.11
875.821	515.11
876.111	503.77
876.4	517.95
876.689	509.16
876.978	503.48
877.268	488.16
877.557	500.08
877.846	513.98
878.134	506.04
878.423	506.04
878.712	506.04
