Data from FLMS007011_12-39-30-942.txt Node
Date: Thu Apr 21 12:39:30 MDT 2016
User: lab_user
Spectrometer: FLMS00701
Autoset integration time: false
Trigger mode: 0
Integration Time (sec): 5.000000E-3
Scans to average: 10
Electric dark correction enabled: true
Nonlinearity correction enabled: true
Boxcar width: 0
XAxis mode: Wavelengths
Stop averaging: false
Number of Pixels in Spectrum: 2048
>>>>>Begin Spectral Data<<<<<
178.41	24.49
178.791	24.49
179.172	24.49
179.553	-36.94
179.934	-64.68
180.316	-72.11
180.697	-97.57
181.078	-46.66
181.459	-57.53
181.84	-35.8
182.221	-25.22
182.602	-15.22
182.983	-4.94
183.364	40.76
183.744	54.47
184.125	52.18
184.506	111.25
184.887	124.09
185.268	135.21
185.648	169.99
186.029	196.49
186.41	211.3
186.791	221.84
187.171	271.66
187.552	340.49
187.932	370.91
188.313	398.47
188.694	416.65
189.074	416.65
189.455	447.6
189.835	457.81
190.216	465.48
190.596	466.33
190.977	489.31
191.357	487.61
191.737	490.17
192.118	528.46
192.498	533.56
192.878	531.57
193.258	552.27
193.639	542.92
194.019	574.38
194.399	521.65
194.779	545.75
195.159	543.77
195.54	538.1
195.92	547.73
196.3	544.9
196.68	563.04
197.06	583.44
197.44	540.08
197.82	570.13
198.2	550.85
198.58	552.84
198.959	572.11
199.339	542.35
199.719	561.91
200.099	573.81
200.479	557.94
200.858	560.21
201.238	554.54
201.618	550.57
201.998	554.82
202.377	587.13
202.757	559.64
203.136	557.37
203.516	551.14
203.896	557.37
204.275	578.06
204.655	604.41
205.034	612.34
205.414	556.24
205.793	565.02
206.172	558.22
206.552	593.93
206.931	570.69
207.31	571.83
207.69	589.68
208.069	601.01
208.448	601.01
208.827	595.63
209.207	598.74
209.586	594.21
209.965	589.11
210.344	617.15
210.723	605.26
211.102	609.51
211.481	616.59
211.86	645.47
212.239	635.56
212.618	619.99
212.997	639.52
213.376	664.43
213.755	663.02
214.134	637.54
214.513	667.55
214.891	670.94
215.27	663.3
215.649	705.17
216.028	703.19
216.406	701.5
216.785	720.16
217.164	733.17
217.542	743.07
217.921	752.11
218.3	784.05
218.678	771.05
219.057	763.14
219.435	787.72
219.814	799.59
220.192	804.11
220.57	829.52
220.949	847.03
221.327	892.46
221.705	887.67
222.084	915.31
222.462	945.48
222.84	961.83
223.218	966.06
223.597	1008.6
223.975	1043.52
224.353	1049.43
224.731	1117.8
225.109	1149.86
225.487	1122.02
225.865	1167.85
226.243	1187.52
226.621	1217.01
226.999	1270.08
227.377	1312.72
227.755	1331.8
228.133	1352.54
228.511	1432.12
228.889	1462.63
229.266	1482.22
229.644	1541.81
230.022	1647.15
230.4	1632.07
230.777	1679.53
231.155	1732.82
231.533	1781.61
231.91	1854.04
232.288	1899.14
232.665	1901.36
233.043	1955.88
233.42	2038.15
233.798	2093.68
234.175	2150.84
234.553	2174.13
234.93	2212.39
235.307	2308.77
235.685	2370.74
236.062	2382.63
236.439	2484.6
236.816	2527.66
237.194	2562.15
237.571	2615.1
237.948	2682.07
238.325	2754.2
238.702	2769.06
239.079	2835.89
239.456	2865.57
239.833	2958.68
240.21	3019.04
240.587	3053.86
240.964	3127.57
241.341	3192.73
241.718	3273.7
242.095	3308.14
242.472	3349.67
242.849	3446.85
243.225	3460.48
243.602	3572.24
243.979	3581.5
244.356	3624.25
244.732	3693.64
245.109	3775.74
245.486	3799.1
245.862	3919.89
246.239	3942.4
246.615	3992.01
246.992	4060.28
247.368	4064.07
247.745	4173.94
248.121	4228.27
248.497	4231.79
248.874	4328.21
249.25	4350.34
249.626	4460.38
250.003	4455.26
250.379	4565.97
250.755	4611.18
251.131	4662.29
251.507	4682.18
251.884	4765.48
252.26	4826.16
252.636	4847.9
253.012	4896.45
253.388	4955.43
253.764	5024.28
254.14	5094.95
254.516	5131.61
254.892	5114.22
255.268	5222.5
255.643	5242.01
256.019	5260.97
256.395	5337.6
256.771	5400.29
257.147	5414.43
257.522	5421.62
257.898	5464.54
258.274	5496.52
258.649	5579.33
259.025	5651.71
259.4	5559.37
259.776	5681.49
260.151	5658.09
260.527	5727.74
260.902	5772.11
261.278	5793.09
261.653	5818.05
262.028	5846.72
262.404	5850.71
262.779	5962.38
263.154	5984.11
263.53	6040.55
263.905	6004.52
264.28	6015.65
264.655	6042.14
265.03	6007.7
265.405	6099.33
265.781	6137.97
266.156	6122.63
266.531	6161.52
266.906	6152
267.281	6287.63
267.655	6233.98
268.03	6178.45
268.405	6242.44
268.78	6291.33
269.155	6288.16
269.53	6278.91
269.904	6294.24
270.279	6293.44
270.654	6364.22
271.029	6334.38
271.403	6380.85
271.778	6366.07
272.152	6356.3
272.527	6388.51
272.901	6537.52
273.276	6466.86
273.65	6502.2
274.025	6497.45
274.399	6490.6
274.774	6516.7
275.148	6531.98
275.522	6617.08
275.897	6543.84
276.271	6514.32
276.645	6635.77
277.019	6672.1
277.393	6706.83
277.768	6673.94
278.142	6684.2
278.516	6693.41
278.89	6789.94
279.264	6732.88
279.638	6764.7
280.012	6767.33
280.386	6725.78
280.76	6785.73
281.133	6806.5
281.507	6817.8
281.881	6835.15
282.255	6824.37
282.629	6832.78
283.002	6812.02
283.376	6817.8
283.75	6853.27
284.123	6920.25
284.497	6814.65
284.87	6985.34
285.244	6954.9
285.618	6955.42
285.991	6815.7
286.364	6931.54
286.738	6908.17
287.111	6977.47
287.485	6948.07
287.858	6958.57
288.231	6935.21
288.605	6968.02
288.978	6998.19
289.351	6863.52
289.724	6887.42
290.097	6903.7
290.47	6885.32
290.843	6893.99
291.217	6901.08
291.59	6824.11
291.963	6833.31
292.336	6847.49
292.708	6851.7
293.081	6785.73
293.454	6842.77
293.827	6826.47
294.2	6820.17
294.573	6837.25
294.945	6744.45
295.318	6751.29
295.691	6803.08
296.064	6708.68
296.436	6714.2
296.809	6721.3
297.181	6729.46
297.554	6663.15
297.926	6657.36
298.299	6713.41
298.671	6721.04
299.044	6698.94
299.416	6653.94
299.788	6650.51
300.161	6619.45
300.533	6617.08
300.905	6662.62
301.278	6637.35
301.65	6683.42
302.022	6590.21
302.394	6589.95
302.766	6597.33
303.138	6579.68
303.51	6608.65
303.882	6594.95
304.254	6627.61
304.626	6602.59
304.998	6647.88
305.37	6553.59
305.742	6560.71
306.114	6579.41
306.485	6641.56
306.857	6646.57
307.229	6623.92
307.601	6601.8
307.972	6636.56
308.344	6717.09
308.716	6703.94
309.087	6713.94
309.459	6682.36
309.83	6769.17
310.202	6714.2
310.573	6742.35
310.945	6697.89
311.316	6596.54
311.687	6608.39
312.059	6522.5
312.43	6473.19
312.801	6425.98
313.172	6304.01
313.544	6246.41
313.915	6207.81
314.286	6178.45
314.657	6030.22
315.028	5974.57
315.399	5997.63
315.77	5985.44
316.141	5970.86
316.512	6116.54
316.883	6156.76
317.254	6298.46
317.625	6455.79
317.996	6733.93
318.366	6958.05
318.737	7162.82
319.108	7519.25
319.478	7749.27
319.849	8040.67
320.22	8350.24
320.59	8585.83
320.961	8630.3
321.331	8885.98
321.702	8933.18
322.072	9036.04
322.443	9113.06
322.813	9151.17
323.184	9151.68
323.554	9085.25
323.924	9108.94
324.295	9048.92
324.665	9033.2
325.035	9096.06
325.405	9145.25
325.775	9191.06
326.145	9395.76
326.515	9516.21
326.886	9666.81
327.256	9811.1
327.626	9926.57
327.995	10075.69
328.365	10036.32
328.735	10129.88
329.105	10219.29
329.475	10557.78
329.845	10966.15
330.215	11630.71
330.584	12201.35
330.954	12872.22
331.324	13343.82
331.693	13644.69
332.063	13779.33
332.432	13874.13
332.802	13771.83
333.171	13517.48
333.541	13235.24
333.91	13218.94
334.28	13220.94
334.649	13272.61
335.018	13216.68
335.388	13302.2
335.757	13310.73
336.126	13254.05
336.495	13334.04
336.865	13254.55
337.234	13191.09
337.603	13228.97
337.972	13188.08
338.341	13248.03
338.71	13283.14
339.079	13210.41
339.448	13282.64
339.817	13261.08
340.186	13209.66
340.554	13197.61
340.923	13208.65
341.292	13091.22
341.661	13122.09
342.029	13174.78
342.398	13063.85
342.767	12929.75
343.135	13036.74
343.504	12868.2
343.872	12963.16
344.241	12915.68
344.609	12806.62
344.978	12699.26
345.346	12680.89
345.715	12622.03
346.083	12542.5
346.451	12479.56
346.82	12388.63
347.188	12280.02
347.556	12149.14
347.924	12100.19
348.292	11941.4
348.66	11873.2
349.028	11721.02
349.396	11589.21
349.764	11560.61
350.132	11371.66
350.5	11274.31
350.868	11183.75
351.236	11144.67
351.604	10952.43
351.972	10955.99
352.34	10724.32
352.707	10708.79
353.075	10647.95
353.443	10610.77
353.81	10439.01
354.178	10477.51
354.545	10418.61
354.913	10327.02
355.28	10262.96
355.648	10244.32
356.015	10150.58
356.383	10133.71
356.75	9969.3
357.117	10008.7
357.485	9864.37
357.852	9856.94
358.219	9830.82
358.586	9774.72
358.954	9683.48
359.321	9564.98
359.688	9488.74
360.055	9408.35
360.422	9369.55
360.789	9347.96
361.156	9292.68
361.523	9225.55
361.89	9182.57
362.256	9186.17
362.623	9084.99
362.99	9067.73
363.357	8959.49
363.724	9027.02
364.09	8927.51
364.457	8900.43
364.823	8955.62
365.19	8931.12
365.557	8933.7
365.923	8868.18
366.29	8917.19
366.656	8907.65
367.022	8972.38
367.389	8936.79
367.755	8797.97
368.121	8796.17
368.488	8818.11
368.854	8800.3
369.22	8765.7
369.586	8804.43
369.952	8703.45
370.318	8625.13
370.684	8659.77
371.051	8744.52
371.416	8654.09
371.782	8704.48
372.148	8688.2
372.514	8691.04
372.88	8748.4
373.246	8724.37
373.612	8773.7
373.977	8804.69
374.343	8934.47
374.709	9089.37
375.074	8981.4
375.44	9024.7
375.806	9026.5
376.171	9011.04
376.537	9099.41
376.902	9126.45
377.268	9218.86
377.633	9247.41
377.998	9371.86
378.364	9506.2
378.729	9599.62
379.094	9593.71
379.459	9403.47
379.825	9391.39
380.19	9396.79
380.555	9373.92
380.92	9170.99
381.285	9227.6
381.65	9369.03
382.015	9371.6
382.38	9378.8
382.745	9354.13
383.11	9298.85
383.474	9410.66
383.839	9393.7
384.204	9375.46
384.569	9426.59
384.933	9376.74
385.298	9436.09
385.663	9457.15
386.027	9551.38
386.392	9637.07
386.756	9838.76
387.121	9915.82
387.485	10044.76
387.849	10145.72
388.214	10095.12
388.578	10066.49
388.942	10000.51
389.307	9994.63
389.671	10068.53
390.035	10105.6
390.399	10243.04
390.763	10412.49
391.127	10583.52
391.492	10799.63
391.856	11104.06
392.219	11445.39
392.583	11568.96
392.947	11298.4
393.311	11024.33
393.675	10913.29
394.039	10859.14
394.403	10965.64
394.766	10844.39
395.13	10919.14
395.494	10909.48
395.857	11180.2
396.221	11238.8
396.584	11457.29
396.948	11671.7
397.311	12091.36
397.675	12365.45
398.038	12585.79
398.401	12310.52
398.765	12030.79
399.128	11775.64
399.491	11555.29
399.854	11593.26
400.218	11553.52
400.581	11553.27
400.944	11540.61
401.307	11323.24
401.67	11384.83
402.033	11403.33
402.396	11358.48
402.759	11455.27
403.122	11539.6
403.485	11650.2
403.847	11817.85
404.21	11969.18
404.573	12168.06
404.936	12329.67
405.298	12137.03
405.661	11946.96
406.023	11597.06
406.386	11535.8
406.749	11432.47
407.111	11396.74
407.473	11655
407.836	11902
408.198	12011.35
408.561	12004.28
408.923	12073.44
409.285	12097.92
409.647	12007.56
410.009	11807.24
410.372	11740.75
410.734	11671.7
411.096	11702.56
411.458	11791.06
411.82	11956.05
412.182	12118.11
412.544	12132.49
412.906	12202.11
413.267	12252.79
413.629	12149.65
413.991	11944.43
414.353	12059.56
414.714	11797.63
415.076	11746.81
415.438	11730.63
415.799	11827.96
416.161	11829.48
416.522	11631.73
416.884	11607.69
417.245	11661.33
417.607	11585.41
417.968	11579.09
418.329	11749.09
418.691	11716.47
419.052	11765.78
419.413	11834.28
419.774	11999.48
420.135	12479.05
420.497	12871.71
420.858	13289.16
421.219	13454.85
421.58	13344.07
421.941	12939.8
422.302	12483.34
422.662	12350.34
423.023	12181.43
423.384	12108.77
423.745	12122.4
424.106	12102.97
424.466	12420.12
424.827	12207.4
425.187	11890.88
425.548	11642.61
425.909	11445.64
426.269	11501.36
426.63	11613.51
426.99	11951.76
427.35	11879.76
427.711	11896.69
428.071	12045.43
428.431	12424.66
428.792	13253.8
429.152	14146.55
429.512	14513.7
429.872	14382.48
430.232	14199.75
430.592	13425.28
430.952	12715.1
431.312	12135.52
431.672	11578.07
432.032	11512
432.392	11759.46
432.752	12606.43
433.111	13436.31
433.471	13648.7
433.831	12858.14
434.19	12567.92
434.55	12426.17
434.91	12169.57
435.269	12418.36
435.629	12453.62
435.988	12578.74
436.348	12438.51
436.707	12079
437.066	11950.75
437.426	12030.28
437.785	12198.07
438.144	12302.71
438.503	12157.72
438.862	12127.19
439.222	11895.18
439.581	11721.78
439.94	11779.94
440.299	12571.7
440.658	13298.69
441.017	13563.32
441.376	13466.63
441.734	13144.67
442.093	12928.5
442.452	12953.37
442.811	13281.64
443.169	13316.99
443.528	12968.94
443.887	12915.94
444.245	12733.46
444.604	12508.01
444.962	12358.65
445.321	12339
445.679	12310.01
446.038	12589.31
446.396	12317.83
446.754	11981.3
447.112	11894.42
447.471	11774.88
447.829	11570.73
448.187	11552
448.545	11715.46
448.903	11684.09
449.261	11626.66
449.619	11488.45
449.977	11318.93
450.335	11126.4
450.693	11037.53
451.051	11031.44
451.409	10955.73
451.766	11019.5
452.124	10721.77
452.482	10483.11
452.839	10334.68
453.197	10096.14
453.555	10086.68
453.912	10034.53
454.27	10317.07
454.627	10523.89
454.984	10657.63
455.342	10452.01
455.699	10239.98
456.056	10125.53
456.414	10362.74
456.771	10638.27
457.128	10805.48
457.485	10975.3
457.842	10906.94
458.199	10872.36
458.556	11083.24
458.913	10934.13
459.27	11256.81
459.627	10964.63
459.984	10974.03
460.341	11112.44
460.697	10865.75
461.054	10477
461.411	9959.58
461.767	9663.48
462.124	9539.83
462.481	9718.34
462.837	9988.49
463.194	10499.43
463.55	10344.37
463.907	10847.44
464.263	11218.26
464.619	11577.06
464.976	11986.35
465.332	12173.36
465.688	11775.38
466.044	11053.02
466.4	10533.07
466.756	10280.57
467.112	10166.42
467.468	10144.19
467.824	10083.87
468.18	9903.79
468.536	9732.7
468.892	9498.24
469.248	9368.52
469.604	9276.22
469.959	9255.39
470.315	9340.76
470.671	9246.9
471.026	9293.97
471.382	9508.25
471.737	9718.6
472.093	9902.25
472.448	10282.61
472.804	10556.51
473.159	10794.54
473.514	10805.23
473.87	10857.62
474.225	11380.78
474.58	11928.77
474.935	12132.74
475.29	11898.71
475.645	11656.52
476	11554.53
476.355	11412.45
476.71	11310.57
477.065	11668.41
477.42	12114.32
477.775	12232.62
478.13	12243.46
478.485	12366.46
478.839	12348.82
479.194	12966.68
479.549	13375.41
479.903	13607.39
480.258	13313.23
480.612	13489.17
480.967	14101.09
481.321	14268.92
481.675	13981.64
482.03	13469.13
482.384	13045.28
482.738	13181.81
483.093	13504.71
483.447	13862.63
483.801	14626.9
484.155	15255.34
484.509	17109.48
484.863	34284.41
485.217	48304.12
485.571	54266.8
485.925	41189.17
486.279	28018.47
486.632	20829.54
486.986	17561.26
487.34	15588.64
487.694	14343.3
488.047	13808.6
488.401	13933.89
488.754	13774.33
489.108	13470.38
489.461	13272.36
489.815	12880.26
490.168	13070.13
490.522	13127.86
490.875	13193.6
491.228	13093.22
491.581	13221.45
491.935	13195.36
492.288	13066.87
492.641	13140.91
492.994	13180.55
493.347	13335.3
493.7	13493.18
494.053	13524.49
494.406	13303.96
494.759	12754.33
495.111	12983.5
495.464	13972.89
495.817	14977.9
496.169	14738.8
496.522	13727.54
496.875	12542.5
497.227	12088.59
497.58	11954.28
497.932	12313.54
498.285	12373.52
498.637	12925.48
498.989	13392.7
499.342	13442.57
499.694	13017.15
500.046	12572.2
500.398	12981.5
500.751	13334.8
501.103	13406.74
501.455	13508.21
501.807	13435.3
502.159	13443.07
502.511	13436.31
502.862	13341.31
503.214	13115.31
503.566	12660.52
503.918	12234.39
504.27	12193.28
504.621	12262.12
504.973	12043.41
505.324	12176.13
505.676	12419.12
506.027	12629.83
506.379	12052.24
506.73	11461.09
507.082	11426.9
507.433	11728.61
507.784	12156.46
508.136	11914.88
508.487	11702.56
508.838	11341.75
509.189	11292.31
509.54	11420.31
509.891	11366.08
510.242	11454.76
510.593	11231.7
510.944	11075.88
511.295	10885.58
511.646	10539.18
511.996	10487.19
512.347	10670.36
512.698	10781.06
513.049	10637.26
513.399	10503
513.75	10544.79
514.1	10296.91
514.451	9979.02
514.801	9699.89
515.152	9921.19
515.502	10113.52
515.852	10413.76
516.202	10469.35
516.553	10339.02
516.903	10004.35
517.253	9635.78
517.603	9604.23
517.953	9584.99
518.303	9913.77
518.653	10260.4
519.003	10287.72
519.353	9704.76
519.703	9178.71
520.052	8934.99
520.402	8959.23
520.752	9238.67
521.102	9141.9
521.451	8946.34
521.801	8836.69
522.15	9052.01
522.5	9284.19
522.849	9248.7
523.199	9386.51
523.548	9593.46
523.897	9512.87
524.246	9248.96
524.596	8989.91
524.945	8938.08
525.294	9033.98
525.643	9003.83
525.992	9021.87
526.341	9134.95
526.69	9124.13
527.039	8842.63
527.388	8741.94
527.737	9032.69
528.086	9745.25
528.434	10328.04
528.783	10133.97
529.132	9657.07
529.48	9256.42
529.829	9147.56
530.177	9047.38
530.526	8839.28
530.874	9025.22
531.223	8987.07
531.571	9027.28
531.919	9020.32
532.268	9423.25
532.616	10069.81
532.964	10600.33
533.312	10711.59
533.66	10608.48
534.008	10573.07
534.356	10638.02
534.704	10454.56
535.052	10243.55
535.4	9866.93
535.748	9379.31
536.095	8887.79
536.443	8720.76
536.791	8938.6
537.139	9364.66
537.486	9877.94
537.834	10099.98
538.181	10198.86
538.529	10188.64
538.876	10183.28
539.223	10107.39
539.571	9614.75
539.918	9544.96
540.265	9703.73
540.613	10151.6
540.96	10037.85
541.307	9969.3
541.654	9902.77
542.001	9935.01
542.348	9917.36
542.695	9855.92
543.042	10057.03
543.388	10304.56
543.735	10522.37
544.082	10510.13
544.429	10457.37
544.775	10048.85
545.122	9668.87
545.469	9081.38
545.815	9099.41
546.162	9210.37
546.508	9623.73
546.854	10227.72
547.201	11058.36
547.547	11560.61
547.893	11204.3
548.24	10287.72
548.586	9221.94
548.932	8799.52
549.278	8592.29
549.624	8865.86
549.97	8824.31
550.316	8447.38
550.662	8212.03
551.008	8650.73
551.353	9867.95
551.699	10634.96
552.045	10467.31
552.391	9798.29
552.736	9504.4
553.082	9512.36
553.427	9391.65
553.773	8777.84
554.118	8505.63
554.464	8935.5
554.809	9545.99
555.154	10121.7
555.5	10175.87
555.845	9705.01
556.19	9045.06
556.535	8470.94
556.88	8628.75
557.225	8859.66
557.57	8549.61
557.915	8227.34
558.26	7847.18
558.605	7833.38
558.95	8138.07
559.295	8932.41
559.639	9681.17
559.984	10506.31
560.329	10857.11
560.673	10801.92
561.018	10384.68
561.362	9702.71
561.707	9190.04
562.051	9186.43
562.395	9436.35
562.74	9948.83
563.084	10133.97
563.428	10611.79
563.772	10676.98
564.117	10670.1
564.461	10829.39
564.805	10610.52
565.149	10682.07
565.493	10747.22
565.836	11043.88
566.18	11325.78
566.524	12662.03
566.868	13817.61
567.212	14368.01
567.555	14594.99
567.899	15691.71
568.242	17283.28
568.586	19435.69
568.929	22045.52
569.273	25100.04
569.616	25957.53
569.96	26452.15
570.303	27910.62
570.646	28976.16
570.989	30393.53
571.333	30530.59
571.676	28966.58
572.019	24675.52
572.362	25164.33
572.705	29548.55
573.048	34044.32
573.391	36440.1
573.733	37821.36
574.076	38837.26
574.419	37529.32
574.762	33523.58
575.104	29600.44
575.447	27956.8
575.789	31507.41
576.132	36820.61
576.474	37797.1
576.817	43335.6
577.159	49637.86
577.501	51666.51
577.844	45954.86
578.186	35686.37
578.528	30657.33
578.87	30460.95
579.212	32084.76
579.554	35495.91
579.896	35021.99
580.238	37795.87
580.58	49612.11
580.922	57957.55
581.264	62447.49
581.606	54843.23
581.947	47425.9
582.289	38097.14
582.631	30029.89
582.972	25688.53
583.314	25604.59
583.655	27271.01
583.997	32671.74
584.338	38812.23
584.679	43260.81
585.021	42916.11
585.362	36664.09
585.703	31276.68
586.044	28862.35
586.385	32289.02
586.726	36375.58
587.067	35798.78
587.408	31429.84
587.749	28323.63
588.09	25898.62
588.431	23560.06
588.772	21020.45
589.113	21363.12
589.453	22089.95
589.794	21231.96
590.134	19205.27
590.475	17792.64
590.815	17717.09
591.156	18208.2
591.496	18461.96
591.837	24381.32
592.177	30496.88
592.517	35263.25
592.857	32610.12
593.198	28517.03
593.538	23144.13
593.878	20653.83
594.218	21340.03
594.558	24088.59
594.898	23674.65
595.237	21219.18
595.577	18372.21
595.917	16190.67
596.257	17059.03
596.596	18153.69
596.936	19782.41
597.276	18318.7
597.615	18201.54
597.955	22466.27
598.294	27179.9
598.633	28017.48
598.973	25823.03
599.312	24946.43
599.651	25190.34
599.991	23959.53
600.33	23116.89
600.669	21977.02
601.008	20777.44
601.347	19044.71
601.686	19758.8
602.025	19935.67
602.364	21767.1
602.702	22713.67
603.041	22920.07
603.38	21103.24
603.719	19125
604.057	17536.06
604.396	17527.42
604.734	18633.77
605.073	22706.31
605.411	22723.98
605.75	21817.43
606.088	18904.07
606.426	19188.53
606.764	20025.19
607.103	19641.43
607.441	17865.47
607.779	16830.44
608.117	17107.01
608.455	16181
608.793	15258.32
609.131	16978.15
609.469	18584.72
609.806	18819.07
610.144	16186.95
610.482	15060.79
610.819	15371.45
611.157	15200.37
611.495	14386.22
611.832	13991.89
612.17	14055.37
612.507	14650.83
612.844	14413.17
613.182	14334.57
613.519	14329.57
613.856	14642.11
614.193	14708.15
614.53	15440.55
614.867	15828
615.205	14535.89
615.541	13354.35
615.878	11895.68
616.215	12168.82
616.552	12024.22
616.889	12517.07
617.226	13036.24
617.562	12564.65
617.899	11131.98
618.235	9937.32
618.572	8986.81
618.908	9454.59
619.245	10410.19
619.581	11125.13
619.918	10020.97
620.254	7666.39
620.59	6858.53
620.926	7725.56
621.262	9052.53
621.599	9431.73
621.935	9300.4
622.271	10083.62
622.606	10623.76
622.942	10500.19
623.278	9566.52
623.614	10144.19
623.95	10586.32
624.285	10433.91
624.621	9381.63
624.957	8608.58
625.292	8235.12
625.628	7604.32
625.963	7429.14
626.299	7762.29
626.634	8060.93
626.969	8037.81
627.304	6957.26
627.64	5818.59
627.975	5827.35
628.31	6387.98
628.645	7148.94
628.98	6932.59
629.315	6671.05
629.65	6425.71
629.985	6463.96
630.319	6051.67
630.654	5732.26
630.989	5804.25
631.323	5700.1
631.658	5405.36
631.993	4839.04
632.327	4748.83
632.662	4752.59
632.996	4949
633.33	5124.12
633.665	4984.1
633.999	4619.25
634.333	4535.27
634.667	4473.04
635.001	4758.23
635.335	5100.31
635.669	5425.62
636.003	5546.59
636.337	5082.64
636.671	4537.97
637.005	4127.95
637.339	4185.83
637.672	4453.91
638.006	4819.99
638.339	4782.4
638.673	4498.91
639.006	4159.06
639.34	4064.88
639.673	3996.08
640.007	4038.61
640.34	3910.94
640.673	3823
641.006	3809.15
641.34	3693.09
641.673	3503.57
642.006	3357.31
642.339	3387.62
642.672	3588.31
643.004	3485.03
643.337	3388.44
643.67	3269.87
644.003	3333
644.336	3384.07
644.668	3330.54
645.001	3286.27
645.333	3212.98
645.666	3022.33
645.998	2876.56
646.331	2810.59
646.663	2846.33
646.995	3104.29
647.327	3645.48
647.66	4242.33
647.992	4462.53
648.324	4567.58
648.656	4346.56
648.988	4132.01
649.32	3529.46
649.652	3181.51
649.983	2946.87
650.315	2941.11
650.647	3003.95
650.979	3387.62
651.31	3645.48
651.642	3859.38
651.973	3942.95
652.305	3959.49
652.636	3887.61
652.967	3669.15
653.299	3484.21
653.63	3412.19
653.961	3797.74
654.292	5519.69
654.623	32264.87
654.955	68950.86
655.286	68950.86
655.616	68950.86
655.947	68950.86
656.278	68950.86
656.609	37633.51
656.94	17993.56
657.27	11687.13
657.601	9168.16
657.932	7189.54
658.262	5571.35
658.593	4353.31
658.923	3414.92
659.254	2946.32
659.584	2645.7
659.914	2447.03
660.244	2380.69
660.575	2372.95
660.905	2408.62
661.235	2509.17
661.565	2522.97
661.895	2585.32
662.225	2472.44
662.555	2435.7
662.884	2462.23
663.214	2536.22
663.544	2648.73
663.873	2635.78
664.203	2736.31
664.533	2862.82
664.862	2972.95
665.192	2815.54
665.521	2584.22
665.85	2340.87
666.18	2185.5
666.509	2158.33
666.838	2268.62
667.167	2367.7
667.496	2344.46
667.825	2289.94
668.154	2271.39
668.483	2366.59
668.812	2392.58
669.141	2475.76
669.47	2550.57
669.798	2526.01
670.127	2417.19
670.456	2598.01
670.784	3282.45
671.113	3936.71
671.441	4469.54
671.77	4476.55
672.098	4055.68
672.426	3425.56
672.755	2824.07
673.083	2640.74
673.411	2678.76
673.739	2639.08
674.067	2432.39
674.395	2374.06
674.723	2484.6
675.051	2672.42
675.379	2632.47
675.706	2621.44
676.034	2515.79
676.362	2436.81
676.689	2645.7
677.017	3120.18
677.344	3492.66
677.672	3483.39
677.999	3292.83
678.327	3308.41
678.654	3626.43
678.981	3960.84
679.308	3951.35
679.636	3665.89
679.963	3246.9
680.29	3099.08
680.617	3223.93
680.944	3309.23
681.271	3348.3
681.597	2899.37
681.924	2512.76
682.251	2421.06
682.578	2648.45
682.904	3085.38
683.231	3400.45
683.557	3640.04
683.884	3787.15
684.21	4084.92
684.536	4339.28
684.863	4459.3
685.189	4362.49
685.515	3970.33
685.841	3589.94
686.167	3463.21
686.493	3632.69
686.819	3697.17
687.145	3431.57
687.471	2996.27
687.797	2632.47
688.123	2637.98
688.448	2833.69
688.774	3124.29
689.1	3105.66
689.425	2845.78
689.751	2672.7
690.076	2909.25
690.402	3378.61
690.727	3696.08
691.052	3651.2
691.377	3376.98
691.703	3167.55
692.028	3074.42
692.353	3245.53
692.678	3263.86
693.003	3111.96
693.328	2658.1
693.652	2363.83
693.977	2362.44
694.302	2652.86
694.627	2912.28
694.951	2794.64
695.276	2365.21
695.6	2098.68
695.925	2588.36
696.249	3462.12
696.574	4068.13
696.898	3972.77
697.222	3372.06
697.546	3052.22
697.871	2884.81
698.195	2815.82
698.519	2698.59
698.843	2637.71
699.167	2366.87
699.491	2250.34
699.814	2176.35
700.138	2152.78
700.462	2131.42
700.786	2136.69
701.109	2265.85
701.433	2467.75
701.756	2635.23
702.08	2686.75
702.403	2593.87
702.726	2400.88
703.05	2204.9
703.373	2154.17
703.696	2174.13
704.019	2087.57
704.342	1911.38
704.665	1738.95
704.988	1722.22
705.311	1902.48
705.634	2343.36
705.957	2910.35
706.28	3462.67
706.602	3678.68
706.925	3558.89
707.247	3259.75
707.57	2963.89
707.892	2720.34
708.215	2511.1
708.537	2289.67
708.859	2263.64
709.182	2316.52
709.504	2429.07
709.826	2591.94
710.148	2598.84
710.47	2492.33
710.792	2311.26
711.114	2126.7
711.436	1998.7
711.758	2026.2
712.079	2076.75
712.401	2343.63
712.723	2515.52
713.044	2822.69
713.366	3016.84
713.687	2980.63
714.009	2832.59
714.33	2612.9
714.652	2480.73
714.973	2286.07
715.294	2141.68
715.615	1885.78
715.936	1768.79
716.257	1726.4
716.578	1777.15
716.899	1828.42
717.22	2063.7
717.541	2233.17
717.862	2287.17
718.182	2220.98
718.503	2326.48
718.824	2334.78
719.144	2227.9
719.465	2111.44
719.785	2160.54
720.105	2248.4
720.426	2274.44
720.746	2257.27
721.066	2226.79
721.386	2137.8
721.706	2053.15
722.026	1966.73
722.346	1918.06
722.666	1986.47
722.986	2086.46
723.306	2067.86
723.626	1995.92
723.946	1928.63
724.265	2105.89
724.585	2358.29
724.904	2482.94
725.224	2495.37
725.543	2452.83
725.863	2408.89
726.182	2313.47
726.501	2134.19
726.82	2102.84
727.14	2252.28
727.459	2386.23
727.778	2460.02
728.097	2431.01
728.416	2415.25
728.734	2545.88
729.053	2713.74
729.372	2680.69
729.691	2741.54
730.009	3070.31
730.328	3262.49
730.647	3375.88
730.965	3151.12
731.283	2840.29
731.602	2707.13
731.92	2822.42
732.238	2946.87
732.557	3030.56
732.875	3137.98
733.193	3521.02
733.511	3847.71
733.829	3716.21
734.147	3307.87
734.465	2883.43
734.782	2867.5
735.1	2988.31
735.418	3052.77
735.735	3051.12
736.053	3082.92
736.371	3062.36
736.688	2871.34
737.005	2612.07
737.323	2316.52
737.64	2291.05
737.957	2487.63
738.274	2953.73
738.592	3302.95
738.909	3200.4
739.226	2676.56
739.543	2218.21
739.86	2038.15
740.176	1864.34
740.493	1743.97
740.81	1742.3
741.127	1754.01
741.443	1963.39
741.76	2161.1
742.076	2212.66
742.393	1994.53
742.709	1738.95
743.025	1668.64
743.342	1703.81
743.658	1754.57
743.974	1882.16
744.29	1936.42
744.606	1876.31
744.922	1810.87
745.238	1808.36
745.554	1728.91
745.87	1694.88
746.186	1783.28
746.501	1966.45
746.817	1926.96
747.132	1723.89
747.448	1505.73
747.763	1472.43
748.079	1606.93
748.394	1962
748.71	2226.24
749.025	2518.28
749.34	2666.64
749.655	2595.53
749.97	2367.42
750.285	2265.02
750.6	2348.06
750.915	2439.29
751.23	2408.62
751.545	2250.9
751.859	2082.02
752.174	1969.23
752.489	2148.34
752.803	2474.1
753.118	2574.02
753.432	2405.85
753.747	2243.14
754.061	2283.57
754.375	2465.26
754.689	2686.2
755.004	2775.39
755.318	2817.47
755.632	3071.41
755.946	3310.87
756.26	3518.83
756.573	3890.86
756.887	4129.3
757.201	4034.55
757.515	3402.09
757.828	2863.1
758.142	2766.58
758.455	3142.09
758.769	3642.49
759.082	3860.2
759.396	4053.51
759.709	4072.46
760.022	4071.92
760.335	3666.98
760.648	3178.23
760.962	2644.32
761.275	2338.93
761.587	2274.99
761.9	2351.38
762.213	2510.55
762.526	2758.05
762.839	2772.08
763.151	2938.91
763.464	3252.1
763.776	3762.69
764.089	4097.37
764.401	3761.06
764.714	3336.01
765.026	2856.23
765.338	2486.53
765.65	2136.41
765.962	1864.62
766.275	1731.7
766.587	1764.89
766.898	1897.19
767.21	2180.79
767.522	2573.19
767.834	2867.22
768.146	2808.94
768.457	2545.05
768.769	2215.99
769.08	2110.61
769.392	2267.24
769.703	2546.7
770.015	2774.56
770.326	2882.61
770.637	2607.94
770.948	2288.83
771.26	1921.12
771.571	1886.34
771.882	1980.63
772.193	2050.65
772.504	1931.97
772.814	1861
773.125	1774.92
773.436	1654.97
773.747	1580.38
774.057	1553.55
774.368	1514.4
774.678	1440.8
774.989	1348.06
775.299	1313
775.609	1307.39
775.919	1346.09
776.23	1369.92
776.54	1385.9
776.85	1343.57
777.16	1418.11
777.47	1579.55
777.78	1727.52
778.089	1928.07
778.399	1925.57
778.709	1796.94
779.019	1592.96
779.328	1378.61
779.638	1364.04
779.947	1642.96
780.257	1984.8
780.566	2217.37
780.875	2142.79
781.185	1897.75
781.494	1766.28
781.803	1669.48
782.112	1618.94
782.421	1683.44
782.73	1719.99
783.039	1779.66
783.348	1520.27
783.656	1285.79
783.965	1265.31
784.274	1340.49
784.582	1459.55
784.891	1540.13
785.199	1476.91
785.508	1407.47
785.816	1369.08
786.124	1380.01
786.432	1570.88
786.741	1693.76
787.049	1724.73
787.357	1659.99
787.665	1652.17
787.973	1628.44
788.281	1535.66
788.588	1366
788.896	1242.85
789.204	1137.49
789.511	1116.12
789.819	1105.15
790.126	1085.45
790.434	1109.09
790.741	1161.66
791.049	1127.65
791.356	1097.83
791.663	1019.87
791.97	1044.08
792.277	1045.49
792.584	1143.11
792.891	1418.39
793.198	1704.09
793.505	1790.81
793.812	1703.25
794.119	1572
794.425	1456.19
794.732	1337.96
795.038	1143.11
795.345	960.14
795.651	852.39
795.958	873.56
796.264	973.38
796.57	1086.02
796.876	1124.55
797.183	1090.8
797.489	1036.2
797.795	979.02
798.101	988.04
798.406	1015.08
798.712	949.99
799.018	947.45
799.324	917
799.629	913.9
799.935	891.05
800.24	883.72
800.546	873.84
800.851	832.63
801.157	797.33
801.462	780.37
801.767	769.07
802.072	800.15
802.377	917
802.682	902.62
802.987	892.46
803.292	844.49
803.597	820.2
803.902	810.04
804.207	841.66
804.511	829.24
804.816	916.72
805.12	1044.65
805.425	1171.78
805.729	1184.99
806.034	1096.71
806.338	991.42
806.642	930.54
806.946	898.95
807.251	952.53
807.555	951.68
807.859	966.62
808.162	943.23
808.466	877.23
808.77	820.49
809.074	785.46
809.378	775.57
809.681	776.7
809.985	806.65
810.288	781.5
810.592	776.98
810.895	760.03
811.198	710.83
811.502	692.16
811.805	682.54
812.108	650.85
812.411	736
812.714	834.89
813.017	919.54
813.32	927.15
813.623	885.97
813.926	783.2
814.228	696.97
814.531	671.22
814.833	635.28
815.136	649.71
815.438	680.85
815.741	680.56
816.043	743.07
816.345	724.12
816.648	753.53
816.95	712.81
817.252	700.37
817.554	668.68
817.856	659.34
818.158	616.87
818.46	638.96
818.761	620.27
819.063	662.45
819.365	660.75
819.666	719.03
819.968	794.78
820.269	753.53
820.571	739.96
820.872	698.1
821.173	663.3
821.475	629.61
821.776	616.02
822.077	606.67
822.378	599.88
822.679	614.04
822.98	622.25
823.281	621.4
823.581	612.06
823.882	614.6
824.183	623.1
824.483	627.91
824.784	655.09
825.084	657.36
825.385	646.88
825.685	647.17
825.985	614.32
826.286	643.2
826.586	624.8
826.886	670.66
827.186	651.41
827.486	599.31
827.786	591.66
828.086	619.7
828.386	626.5
828.685	633.29
828.985	615.45
829.285	585.99
829.584	570.13
829.884	595.34
830.183	541.21
830.482	531.01
830.782	506.9
831.081	532.43
831.38	516.26
831.679	540.65
831.978	561.06
832.277	582.31
832.576	593.64
832.875	566.73
833.174	586.56
833.472	592.79
833.771	565.02
834.07	594.21
834.368	580.89
834.667	581.74
834.965	550.57
835.263	558.22
835.562	536.68
835.86	547.45
836.158	519.66
836.456	540.08
836.754	504.07
837.052	520.52
837.35	539.23
837.648	508.89
837.946	520.52
838.243	475.41
838.541	525.9
838.839	536.68
839.136	545.18
839.434	542.06
839.731	520.23
840.028	527.6
840.326	513.14
840.623	516.83
840.92	506.9
841.217	500.95
841.514	515.41
841.811	518.81
842.108	477.11
842.405	484.49
842.701	478.53
842.998	509.17
843.295	499.24
843.591	491.87
843.888	484.49
844.184	515.13
844.481	500.09
844.777	489.6
845.073	483.64
845.369	492.43
845.665	483.64
845.962	485.06
846.258	500.09
846.553	492.15
846.849	514.84
847.145	499.53
847.441	498.11
847.737	500.95
848.032	485.06
848.328	491.58
848.623	512.57
848.919	528.17
849.214	506.33
849.509	499.24
849.805	464.91
850.1	467.46
850.395	480.52
850.69	495.56
850.985	479.95
851.28	491.02
851.575	489.6
851.869	510.59
852.164	493.57
852.459	503.21
852.753	522.5
853.048	530.16
853.342	551.42
853.637	539.23
853.931	540.08
854.225	527.04
854.52	538.38
854.814	513.99
855.108	531.01
855.402	501.8
855.696	504.07
855.99	502.08
856.283	530.44
856.577	504.92
856.871	490.45
857.164	516.55
857.458	497.26
857.751	531.57
858.045	500.38
858.338	474.56
858.632	490.17
858.925	472.86
859.218	508.04
859.511	491.87
859.804	483.64
860.097	486.76
860.39	487.9
860.683	512.01
860.976	477.11
861.268	484.21
861.561	475.69
861.854	470.3
862.146	479.95
862.439	463.78
862.731	476.55
863.023	478.82
863.316	490.73
863.608	490.73
863.9	490.17
864.192	487.9
864.484	475.41
864.776	468.32
865.068	464.34
865.36	496.97
865.651	474.56
865.943	474.56
866.235	456.96
866.526	494.14
866.818	471.72
867.109	455.83
867.4	481.37
867.692	490.73
867.983	489.88
868.274	484.77
868.565	485.06
868.856	484.21
869.147	467.75
869.438	475.13
869.729	474.84
870.02	465.48
870.31	493.29
870.601	487.04
870.892	473.99
871.182	503.78
871.473	496.41
871.763	481.37
872.053	489.88
872.343	491.58
872.634	486.76
872.924	468.03
873.214	479.67
873.504	452.99
873.794	458.38
874.084	495.84
874.373	476.26
874.663	479.67
874.953	471.15
875.242	450.15
875.532	455.26
875.821	457.81
876.111	470.87
876.4	480.23
876.689	450.15
876.978	476.55
877.268	456.96
877.557	459.52
877.846	474.84
878.134	463.78
878.423	463.78
878.712	463.78
