Data from FLMS007011_11-38-56-172.txt Node
Date: Thu Apr 21 11:38:56 MDT 2016
User: lab_user
Spectrometer: FLMS00701
Autoset integration time: false
Trigger mode: 0
Integration Time (sec): 5.000000E-3
Scans to average: 10
Electric dark correction enabled: true
Nonlinearity correction enabled: true
Boxcar width: 0
XAxis mode: Wavelengths
Stop averaging: false
Number of Pixels in Spectrum: 2048
>>>>>Begin Spectral Data<<<<<
178.41	18.42
178.791	18.42
179.172	18.42
179.553	-36.44
179.934	-33.01
180.316	-69.89
180.697	-65.6
181.078	-63.88
181.459	-43.01
181.84	-54.73
182.221	-43.01
182.602	-23.57
182.983	11.57
183.364	20.71
183.744	53.83
184.125	80.95
184.506	95.5
184.887	114.9
185.268	119.74
185.648	138.28
186.029	182.18
186.41	179.04
186.791	202.69
187.171	256.22
187.552	338.44
187.932	332.18
188.313	385.62
188.694	395.85
189.074	429.93
189.455	439.02
189.835	475.92
190.216	464.56
190.596	473.36
190.977	511.09
191.357	483.86
191.737	542
192.118	510.81
192.498	510.81
192.878	528.11
193.258	534.35
193.639	579.13
194.019	531.51
194.399	562.69
194.779	559.29
195.159	549.66
195.54	565.53
195.92	563.83
196.3	562.41
196.68	589.05
197.06	600.1
197.44	584.23
197.82	595
198.2	604.63
198.58	574.6
198.959	561.84
199.339	583.66
199.719	578
200.099	592.73
200.479	593.01
200.858	600.95
201.238	592.45
201.618	583.38
201.998	592.45
202.377	560.43
202.757	573.46
203.136	594.43
203.516	600.66
203.896	601.8
204.275	611.43
204.655	572.05
205.034	613.97
205.414	632.38
205.793	652.48
206.172	606.04
206.552	647.1
206.931	620.49
207.31	629.83
207.69	649.93
208.069	618.22
208.448	657.01
208.827	651.35
209.207	636.63
209.586	690.4
209.965	691.82
210.344	672.58
210.723	700.59
211.102	718.12
211.481	723.78
211.86	720.1
212.239	733.11
212.618	745.55
212.997	761.1
213.376	748.66
213.755	785.68
214.134	812.8
214.513	787.38
214.891	794.72
215.27	842.45
215.649	828.61
216.028	848.94
216.406	849.51
216.785	879.42
217.164	888.73
217.542	925.96
217.921	965.15
218.3	970.5
218.678	957.54
219.057	957.26
219.435	978.39
219.814	1008.26
220.192	1067.38
220.57	1087.08
220.949	1070.76
221.327	1100.02
221.705	1122.52
222.084	1144.74
222.462	1175.37
222.84	1174.25
223.218	1257.67
223.597	1245.03
223.975	1284.05
224.353	1342.39
224.731	1358.93
225.109	1386.11
225.487	1462.01
225.865	1479.36
226.243	1496.99
226.621	1536.15
226.999	1598.21
227.377	1635.64
227.755	1642.34
228.133	1694.82
228.511	1743.08
228.889	1808.02
229.266	1824.18
229.644	1882.65
230.022	1914.94
230.4	1966.39
230.777	1996.13
231.155	2051.14
231.533	2138.29
231.91	2160.48
232.288	2201.79
232.665	2220.36
233.043	2279.64
233.42	2309.53
233.798	2406.62
234.175	2434.54
234.553	2498.62
234.93	2537.54
235.307	2585.54
235.685	2616.7
236.062	2668.51
236.439	2694.95
236.816	2739.28
237.194	2802.28
237.571	2890.79
237.948	2919.63
238.325	2963.28
238.702	3009.1
239.079	3080.11
239.456	3122.31
239.833	3155.44
240.21	3258.05
240.587	3300.43
240.964	3318.74
241.341	3388.11
241.718	3471.88
242.095	3497.51
242.472	3541.39
242.849	3633.99
243.225	3690.04
243.602	3680.52
243.979	3737.9
244.356	3791.43
244.732	3862.04
245.109	3916.31
245.486	3957.8
245.862	3989.78
246.239	4059.68
246.615	4095.96
246.992	4113.55
247.368	4196.86
247.745	4240.92
248.121	4314.92
248.497	4347.31
248.874	4378.34
249.25	4461.4
249.626	4494
250.003	4552.72
250.379	4665.45
250.755	4695.29
251.131	4714.91
251.507	4796.03
251.884	4881.91
252.26	4881.64
252.636	4923.74
253.012	4973.33
253.388	4995.56
253.764	5072.68
254.14	5112.29
254.516	5186.1
254.892	5231.26
255.268	5248.09
255.643	5264.65
256.019	5335.94
256.395	5363.96
256.771	5391.16
257.147	5441.83
257.522	5467.41
257.898	5582.74
258.274	5529.22
258.649	5585.93
259.025	5650.32
259.4	5614.94
259.776	5704.56
260.151	5727.15
260.527	5771.79
260.902	5805.52
261.278	5831.8
261.653	5867.9
262.028	5828.35
262.404	5944.82
262.779	5936.07
263.154	5972.92
263.53	6058.5
263.905	5991.74
264.28	6067.5
264.655	6040.49
265.03	6093.98
265.405	6157.76
265.781	6158.02
266.156	6168.87
266.531	6246.88
266.906	6276.74
267.281	6311.88
267.655	6214.09
268.03	6186.59
268.405	6271.98
268.78	6274.89
269.155	6329.84
269.53	6382.64
269.904	6356.77
270.279	6389.5
270.654	6451.24
271.029	6404.02
271.403	6452.04
271.778	6380.79
272.152	6437.53
272.527	6412.46
272.901	6520.33
273.276	6535.09
273.65	6524.28
274.025	6571.45
274.399	6565.92
274.774	6614.91
275.148	6622.29
275.522	6682.3
275.897	6666.78
276.271	6657.04
276.645	6664.93
277.019	6759.38
277.393	6747.81
277.768	6741.24
278.142	6699.41
278.516	6691.51
278.89	6826.68
279.264	6741.76
279.638	6785.41
280.012	6815.9
280.386	6824.31
280.76	6848.22
281.133	6793.82
281.507	6832.46
281.881	6896.03
282.255	6883.42
282.629	6867.4
283.002	6833.51
283.376	6943.03
283.75	6922.81
284.123	6968.75
284.497	6946.44
284.87	7002.07
285.244	6998.4
285.618	7045.35
285.991	6966.91
286.364	6986.33
286.738	6966.91
287.111	7024.89
287.485	6965.07
287.858	6976.62
288.231	7007.06
288.605	7055.58
288.978	7009.15
289.351	7039.32
289.724	7037.48
290.097	6907.06
290.47	6993.41
290.843	6906.27
291.217	6959.56
291.59	6913.62
291.963	6926.75
292.336	6896.82
292.708	6937.78
293.081	6892.88
293.454	6926.75
293.827	6882.64
294.2	6795.66
294.573	6874.49
294.945	6815.9
295.318	6845.86
295.691	6815.9
296.064	6806.44
296.436	6788.3
296.809	6833.77
297.181	6749.91
297.554	6784.89
297.926	6753.86
298.299	6748.07
298.671	6797.5
299.044	6868.19
299.416	6772
299.788	6755.17
300.161	6788.83
300.533	6827.47
300.905	6804.6
301.278	6795.93
301.65	6827.73
302.022	6755.7
302.394	6850.85
302.766	6861.1
303.138	6817.74
303.51	6834.3
303.882	6886.31
304.254	6853.48
304.626	6844.81
304.998	6956.94
305.37	6829.57
305.742	6916.78
306.114	6885
306.485	6896.29
306.857	6895.51
307.229	6778.05
307.601	6723.88
307.972	6713.35
308.344	6660.46
308.716	6561.18
309.087	6512.42
309.459	6439.37
309.83	6364.95
310.202	6199.29
310.573	6125.48
310.945	6061.41
311.316	6018.77
311.687	5945.35
312.059	5929.17
312.43	5904.77
312.801	5907.43
313.172	5945.88
313.544	6082.6
313.915	6174.43
314.286	6372.08
314.657	6499.24
315.028	6725.45
315.399	6887.36
315.77	7166.69
316.141	7333.41
316.512	7466.7
316.883	7610
317.254	7732.27
317.625	7641.56
317.996	7736.18
318.366	7673.11
318.737	7539.03
319.108	7328.44
319.478	7232.68
319.849	7019.38
320.22	6805.39
320.59	6684.67
320.961	6597.53
321.331	6640.72
321.702	6684.94
322.072	6857.68
322.443	7059.51
322.813	7403.47
323.184	7755.72
323.554	8149.43
323.924	8613.96
324.295	9033.15
324.665	9324.51
325.035	9880.69
325.405	10313.19
325.775	10652.22
326.145	10985.4
326.515	11414.43
326.886	11691.37
327.256	11963.07
327.626	12175.07
327.995	12336.92
328.365	12590.52
328.735	12656.69
329.105	12587.5
329.475	12610.9
329.845	12504.93
330.215	12807.32
330.584	13192.79
330.954	13858.57
331.324	14807.76
331.693	15515.54
332.063	15988.49
332.432	16306.37
332.802	16287.53
333.171	15975.84
333.541	15418.13
333.91	15357.47
334.28	15147.08
334.649	15117.47
335.018	14908.38
335.388	14842.88
335.757	14767.9
336.126	14606.4
336.495	14487.21
336.865	14301.31
337.234	14157.24
337.603	14144.25
337.972	14007.33
338.341	13967.09
338.71	14012.58
339.079	13977.84
339.448	14211.93
339.817	14268.36
340.186	14458.27
340.554	14521.37
340.923	14629.34
341.292	14657.26
341.661	14876.51
342.029	14968.14
342.398	14881.24
342.767	14845.62
343.135	15035.35
343.504	14877.75
343.872	14923.07
344.241	15004.73
344.609	14888.46
344.978	14911.87
345.346	15017.18
345.715	14905.14
346.083	14791.32
346.451	14735.51
346.82	14703.61
347.188	14749.21
347.556	14665.98
347.924	14678.44
348.292	14411.62
348.66	14423.59
349.028	14364.46
349.396	14202.94
349.764	14207.19
350.132	14106.03
350.5	13975.34
350.868	13864.57
351.236	13904.58
351.604	13632.37
351.972	13666.66
352.34	13495.38
352.707	13431.74
353.075	13306.91
353.443	13144.62
353.81	13027.9
354.178	12962.85
354.545	12981.19
354.913	12870.15
355.28	12699.2
355.648	12679.58
356.015	12501.41
356.383	12470.44
356.75	12315.25
357.117	12237.86
357.485	12086.26
357.852	11964.33
358.219	11926.44
358.586	11869.35
358.954	11581.56
359.321	11647.61
359.688	11409.36
360.055	11379.96
360.422	11293.27
360.789	11163.9
361.156	11069.22
361.523	10892.14
361.89	10824.25
362.256	10808.73
362.623	10557.73
362.99	10570.72
363.357	10417.02
363.724	10291.75
364.09	10131.87
364.457	10001.22
364.823	9970.52
365.19	9821.29
365.557	9846.9
365.923	9672.4
366.29	9509.48
366.656	9545.16
367.022	9490.48
367.389	9412.15
367.755	9256.62
368.121	9224.2
368.488	9287.74
368.854	9137.72
369.22	9112.23
369.586	9055.31
369.952	8980.83
370.318	8902.95
370.684	8936.22
371.051	9004.28
371.416	8877.93
371.782	8853.41
372.148	8827.86
372.514	8823.22
372.88	8843.61
373.246	8846.96
373.612	8844.12
373.977	8890.83
374.343	8932.09
374.709	9018.46
375.074	8885.41
375.44	8863.73
375.806	8818.31
376.171	8936.22
376.537	8969.74
376.902	8950.15
377.268	9031.34
377.633	9042.68
377.998	9153.94
378.364	9234.49
378.729	9225.75
379.094	9219.31
379.459	9040.1
379.825	9114.29
380.19	9153.17
380.555	8981.08
380.92	8938.8
381.285	8971.29
381.65	9039.59
382.015	9092.66
382.38	9187.66
382.745	9007.89
383.11	9062.78
383.474	9071.54
383.839	9122.79
384.204	9227.03
384.569	9219.31
384.933	9163.21
385.298	9248.13
385.663	9277.97
386.027	9367.95
386.392	9551.32
386.756	9625.21
387.121	9756.22
387.485	9831.28
387.849	10114.23
388.214	9938.8
388.578	9939.82
388.942	9763.65
389.307	9986.64
389.671	9997.64
390.035	10085.6
390.399	10292.26
390.763	10394.07
391.127	10568.68
391.492	10957.2
391.856	11313.3
392.219	11547.39
392.583	11623.82
392.947	11387.06
393.311	11058.55
393.675	11146.39
394.039	11160.1
394.403	11220.99
394.766	11240.27
395.13	11277.55
395.494	11316.34
395.857	11445.59
396.221	11707.56
396.584	11967.61
396.948	12307.69
397.311	12783.69
397.675	13033.67
398.038	13167.7
398.401	12800.53
398.765	12547.48
399.128	12394.12
399.491	12158.67
399.854	12218.7
400.218	12235.09
400.581	12170.78
400.944	12146.06
401.307	12025.68
401.67	12057.49
402.033	12119.82
402.396	12197.26
402.759	12275.93
403.122	12448.53
403.485	12583.72
403.847	12756.28
404.21	13138.59
404.573	13382.37
404.936	13470.08
405.298	13264.53
405.661	12950.3
406.023	12699.45
406.386	12670.02
406.749	12645.62
407.111	12659.46
407.473	13047.98
407.836	13375.1
408.198	13508.41
408.561	13502.65
408.923	13591.31
409.285	13545.23
409.647	13480.85
410.009	13293.62
410.372	13269.55
410.734	13288.61
411.096	13359.31
411.458	13432.99
411.82	13651.9
412.182	13869.83
412.544	13903.08
412.906	14115.02
413.267	13932.09
413.629	13914.09
413.991	13750
414.353	13850.82
414.714	13596.82
415.076	13612.59
415.438	13635.87
415.799	13786.78
416.161	13572.28
416.522	13596.56
416.884	13526.44
417.245	13538.47
417.607	13703.21
417.968	13578.29
418.329	13766.52
418.691	13820.3
419.052	13909.59
419.413	14089.54
419.774	14239.4
420.135	14863.06
420.497	15369.41
420.858	15870.14
421.219	16082.75
421.58	15642.73
421.941	15254.04
422.302	14684.17
422.662	14648.53
423.023	14407.38
423.384	14395.4
423.745	14618.87
424.106	14602.91
424.466	14826.69
424.827	14471.49
425.187	14064.81
425.548	13826.06
425.909	13672.67
426.269	13976.84
426.63	14104.03
426.99	14427.59
427.35	14293.82
427.711	14418.35
428.071	14631.33
428.431	15172.95
428.792	16355.19
429.152	17393.45
429.512	17530.82
429.872	17283.23
430.232	16933.57
430.592	16094.9
430.952	15175.69
431.312	14465.01
431.672	14009.33
432.032	14062.06
432.392	14414.61
432.752	15839.61
433.111	16717.28
433.471	16559.56
433.831	15206.53
434.19	15138.62
434.55	15274.43
434.91	14887.46
435.269	15191.61
435.629	15305.51
435.988	15481
436.348	15096.32
436.707	14663.24
437.066	14663.74
437.426	14907.64
437.785	15025.14
438.144	15183.4
438.503	14898.17
438.862	14723.55
439.222	14572.25
439.581	14325.03
439.94	14727.54
440.299	15757.94
440.658	16643.01
441.017	16812.82
441.376	16428.28
441.734	16150.44
442.093	15939.12
442.452	16092.17
442.811	16536.03
443.169	16399.54
443.528	15993.45
443.887	15710.27
444.245	15726.91
444.604	15465.35
444.962	15177.93
445.321	15209.77
445.679	15413.9
446.038	15661.85
446.396	15160.01
446.754	14822.71
447.112	14670.96
447.471	14543.07
447.829	14286.83
448.187	14510.4
448.545	14635.32
448.903	14496.19
449.261	14469.25
449.619	14252.38
449.977	14120.02
450.335	13843.57
450.693	13756.01
451.051	13776.77
451.409	13727.98
451.766	13661.41
452.124	13329.73
452.482	13074.09
452.839	12852.81
453.197	12642.35
453.555	12594.04
453.912	12679.08
454.27	12912.61
454.627	13422.47
454.984	13275.31
455.342	13023.38
455.699	12753.02
456.056	12840.75
456.414	13102.96
456.771	13458.3
457.128	13675.17
457.485	13725.23
457.842	13677.68
458.199	13729.23
458.556	14057.06
458.913	13964.34
459.27	14219.42
459.627	13747
459.984	13849.82
460.341	13993.83
460.697	13641.38
461.054	12898.29
461.411	12495.11
461.767	12041.08
462.124	12063.8
462.481	12403.19
462.837	12783.94
463.194	13396.66
463.55	13162.43
463.907	13851.82
464.263	14312.05
464.619	14839.4
464.976	15345.79
465.332	15349.27
465.688	14723.8
466.044	13574.28
466.4	13169.46
466.756	12820.64
467.112	12962.1
467.468	12980.94
467.824	12801.54
468.18	12413.27
468.536	12308.19
468.892	12102.91
469.248	11873.9
469.604	11688.34
469.959	11733.1
470.315	11729.82
470.671	11840.04
471.026	11961.55
471.382	12192.72
471.737	12464.14
472.093	12705.99
472.448	13177.99
472.804	13506.15
473.159	13812.55
473.514	13626.36
473.87	13962.34
474.225	14734.76
474.58	15544.36
474.935	15462.61
475.29	14844.13
475.645	14874.27
476	14801.04
476.355	14524.87
476.71	14523.87
477.065	15258.02
477.42	15713.5
477.775	15820.5
478.13	15581.63
478.485	15811.07
478.839	16084.98
479.194	16852.16
479.549	17466.59
479.903	17448.8
480.258	17048.59
480.612	17571.58
480.967	18313.22
481.321	18400.76
481.675	17631.35
482.03	17107.69
482.384	16889.53
482.738	17070.1
483.093	17394.19
483.447	18007.32
483.801	19169.02
484.155	19911.26
484.509	23523.69
484.863	52134.39
485.217	66253.72
485.571	66722.47
485.925	44419.28
486.279	31535.18
486.632	26409.62
486.986	22397.48
487.34	19538.02
487.694	18307.3
488.047	17919.96
488.401	17985.86
488.754	17827.15
489.108	17338.09
489.461	17002.83
489.815	16735.1
490.168	16999.12
490.522	17173.71
490.875	17015.45
491.228	16866.76
491.581	17122.28
491.935	17016.19
492.288	16733.12
492.641	17089.64
492.994	17115.11
493.347	17517.97
493.7	17588.13
494.053	17448.8
494.406	17030.04
494.759	16259.77
495.111	17105.47
495.464	18637.65
495.817	19596.35
496.169	18683.25
496.522	17243.18
496.875	15994.2
497.227	15602.24
497.58	15670.05
497.932	15989.98
498.285	16232.01
498.637	16878.39
498.989	17471.78
499.342	17360.34
499.694	16655.14
500.046	16194.08
500.398	16988.48
500.751	17409.26
501.103	17417.17
501.455	17467.82
501.807	17541.69
502.159	17456.21
502.511	17524.64
502.862	17407.04
503.214	17004.31
503.566	16280.84
503.918	15814.05
504.27	15962.44
504.621	16043.06
504.973	15740.07
505.324	15863.19
505.676	16338.59
506.027	16596.95
506.379	15466.09
506.73	14922.58
507.082	15142.85
507.433	15654.15
507.784	15963.19
508.136	15491.69
508.487	15245.33
508.838	14785.09
509.189	14905.39
509.54	15146.08
509.891	15030.12
510.242	14972.37
510.593	14693.64
510.944	14618.62
511.295	14119.27
511.646	13761.76
511.996	13880.08
512.347	14064.81
512.698	14102.03
513.049	13954.09
513.399	13776.02
513.75	13789.03
514.1	13429.23
514.451	12932.96
514.801	12844.52
515.152	13170.46
515.502	13365.57
515.852	13673.17
516.202	13830.31
516.553	13579.04
516.903	13023.88
517.253	12697.19
517.603	12520.79
517.953	12664.49
518.303	13263.28
518.653	13561.26
519.003	13390.64
519.353	12590.77
519.703	11939.33
520.052	11784.68
520.402	11962.31
520.752	12150.85
521.102	11948.16
521.451	11748.28
521.801	11778.36
522.15	11903.2
522.5	12113.26
522.849	12120.58
523.199	12418.56
523.548	12503.17
523.897	12526.84
524.246	12046.89
524.596	11787.72
524.945	11798.84
525.294	11787.97
525.643	11852.92
525.992	11951.45
526.341	12137.23
526.69	11932.25
527.039	11728.3
527.388	11439
527.737	12070.86
528.086	13012.33
528.434	13564.26
528.783	13196.55
529.132	12617.19
529.48	12289.79
529.829	12100.9
530.177	11877.43
530.526	11819.31
530.874	11930.49
531.223	11961.8
531.571	11819.06
531.919	11989.33
532.268	12599.83
532.616	13503.65
532.964	14049.31
533.312	14147
533.66	13977.09
534.008	13979.84
534.356	14064.06
534.704	13961.34
535.052	13522.69
535.4	12974.66
535.748	12317.77
536.095	11746.25
536.443	11569.66
536.791	12013.56
537.139	12543.7
537.486	13184.51
537.834	13450.53
538.181	13588.3
538.529	13474.84
538.876	13521.68
539.223	13222.14
539.571	12731.39
539.918	12697.69
540.265	13038.69
540.613	13666.16
540.96	13434
541.307	13219.88
541.654	13247.48
542.001	13202.83
542.348	13167.45
542.695	13123.29
543.042	13521.93
543.388	13811.3
543.735	14020.08
544.082	13909.84
544.429	14016.58
544.775	13441.76
545.122	12662.98
545.469	12145.81
545.815	12151.1
546.162	12377.24
546.508	12815.61
546.854	13714.22
547.201	14922.08
547.547	15326.89
547.893	14715.58
548.24	13506.15
548.586	12187.43
548.932	11820.07
549.278	11621.55
549.624	11954.48
549.97	11745.49
550.316	11253.71
550.662	10902.3
551.008	11804.91
551.353	13344.02
551.699	14261.87
552.045	13712.72
552.391	12879.7
552.736	12807.07
553.082	12709.01
553.427	12427.12
553.773	11689.35
554.118	11453.69
554.464	12003.47
554.809	12974.41
555.154	13523.94
555.5	13491.62
555.845	12614.92
556.19	11931.75
556.535	11433.17
556.88	11633.19
557.225	11766.73
557.57	11436.72
557.915	10871.54
558.26	10516.96
558.605	10504.21
558.95	10853.75
559.295	11957.76
559.639	13043.96
559.984	14138.01
560.329	14413.61
560.673	14438.31
561.018	13665.16
561.362	13006.8
561.707	12340.96
562.051	12505.69
562.395	12746.48
562.74	13413.2
563.084	13766.52
563.428	14302.81
563.772	14270.11
564.117	14390.41
564.461	14620.86
564.805	14308.05
565.149	14413.61
565.493	14435.82
565.836	14923.07
566.18	15258.02
566.524	17275.81
566.868	18523.29
567.212	19373.12
567.555	19741.27
567.899	21537.69
568.242	23463.32
568.586	26478.61
568.929	30378.22
569.273	34088.43
569.616	34662.47
569.96	35860.5
570.303	38017.86
570.646	39045.63
570.989	41435.66
571.333	41336.88
571.676	38756.42
572.019	33149.19
572.362	35545.75
572.705	41136.14
573.048	46026.03
573.391	49335.1
573.733	51060.62
574.076	52377.93
574.419	50409.39
574.762	45469.79
575.104	40078.47
575.447	39400.91
575.789	43943.39
576.132	50202.06
576.474	51072.45
576.817	58734.92
577.159	65502.8
577.501	66701.48
577.844	59753.87
578.186	48313.89
578.528	43158.48
578.87	42559
579.212	44509.51
579.554	48405.73
579.896	47714.57
580.238	51814.3
580.58	66546.93
580.922	68778.7
581.264	68778.7
581.606	68778.7
581.947	62717.8
582.289	52138.23
582.631	42275.12
582.972	36294.7
583.314	36227.22
583.655	37991.62
583.997	45111.16
584.338	52513.33
584.679	57620.75
585.021	56492.51
585.362	49501.25
585.703	42954.53
586.044	40908.13
586.385	45209.51
586.726	49755.39
587.067	47821.79
587.408	42902.06
587.749	39123.71
588.09	35842.95
588.431	32394.92
588.772	29214.82
589.113	29796.9
589.453	30301.69
589.794	28901.63
590.134	26041.91
590.475	24547.38
590.815	24639.64
591.156	24824.66
591.496	25504.41
591.837	33962.6
592.177	41822.8
592.517	47010.1
592.857	43471.42
593.198	38933.6
593.538	32017.94
593.878	29444.23
594.218	30479.6
594.558	33208.86
594.898	32059.09
595.237	28835.75
595.577	25364.03
595.917	22630.91
596.257	24063.51
596.596	25197.9
596.936	26884.2
597.276	24850.67
597.615	25055.32
597.955	31449.23
598.294	36790.64
598.633	37603.26
598.973	35175.28
599.312	34740.97
599.651	34646.92
599.991	33064.62
600.33	32147.04
600.669	30375.51
601.008	28658.78
601.347	26491.62
601.686	27647.47
602.025	27550.94
602.364	29974.49
602.702	31226.64
603.041	31289.43
603.38	28806.99
603.719	26439.82
604.057	24474.02
604.396	24417.58
604.734	25800.88
605.073	30797.07
605.411	30718.8
605.75	29254.16
606.088	26070.87
606.426	26864.31
606.764	27752.36
607.103	26715.52
607.441	24700.01
607.779	23446.15
608.117	23757.29
608.455	22076.4
608.793	21162.39
609.131	23786
609.469	25447.72
609.806	25503.92
610.144	22060.68
610.482	21101.46
610.819	21327.7
611.157	21001.23
611.495	19788.51
611.832	19414.23
612.17	19696.74
612.507	20247.93
612.844	19825.41
613.182	19661.8
613.519	19915.69
613.856	20199.49
614.193	20265.38
614.53	21318.86
614.867	21579.19
615.205	19917.41
615.541	18500.11
615.878	16822.47
616.215	17073.81
616.552	16826.43
616.889	17220.93
617.226	17961.67
617.562	17177.42
617.899	15203.3
618.235	13817.05
618.572	12555.53
618.908	13248.73
619.245	14445.3
619.581	15156.53
619.918	13524.19
620.254	10614.28
620.59	9836.65
620.926	10961.27
621.262	12488.82
621.599	12644.61
621.935	12728.88
622.271	13734.74
622.606	14452.28
622.942	14010.58
623.278	13156.91
623.614	14059.31
623.95	14435.32
624.285	14104.28
624.621	12812.09
624.957	11972.91
625.292	11331.55
625.628	10542.95
625.963	10299.91
626.299	10673.35
626.634	10965.84
626.969	10811.02
627.304	9431.67
627.64	8110.23
627.975	8186.55
628.31	8943.18
628.645	9740.84
628.98	9302.4
629.315	9033.66
629.65	8810.83
629.985	8794.04
630.319	8197.71
630.654	7924.14
630.989	8008.9
631.323	7749.99
631.658	7348.84
631.993	6595.95
632.327	6529.29
632.662	6586.99
632.996	6863.2
633.33	6955.1
633.665	6778.58
633.999	6189.24
634.333	6197.17
634.667	6136.33
635.001	6431.46
635.335	6881.32
635.669	7480.54
636.003	7442.41
636.337	6858.73
636.671	6215.42
637.005	5812.95
637.339	5754.79
637.672	6102.72
638.006	6490.28
638.339	6446.23
638.673	6066.44
639.006	5703.5
639.34	5622.39
639.673	5416.23
640.007	5504.18
640.34	5324.19
640.673	5245.96
641.006	5179.41
641.34	4928.03
641.673	4714.91
642.006	4553.52
642.339	4718.14
642.672	4815.09
643.004	4695.83
643.337	4488.34
643.67	4414.22
644.003	4511.51
644.336	4593.63
644.668	4508.82
645.001	4437.94
645.333	4287.38
645.666	4101.37
645.998	3940.72
646.331	3840.05
646.663	3813.44
646.995	4291.43
647.327	4975.2
647.66	5675.05
647.992	5954.1
648.324	6089.48
648.656	5891.25
648.988	5547.6
649.32	4958.59
649.652	4455.2
649.983	4133.57
650.315	4078.36
650.647	4218.21
650.979	4673.25
651.31	5059.3
651.642	5273.73
651.973	5311.11
652.305	5343.14
652.636	5308.71
652.967	5014.31
653.299	4770.79
653.63	4853.74
653.961	5428.76
654.292	8040.09
654.623	51505.74
654.955	68778.7
655.286	68778.7
655.616	68778.7
655.947	68778.7
656.278	68778.7
656.609	68778.7
656.94	46004.99
657.27	32566.44
657.601	23971.74
657.932	16608.34
658.262	11067.95
658.593	7559.91
658.923	5447.69
659.254	4347.04
659.584	3786.82
659.914	3487.15
660.244	3273.91
660.575	3264.62
660.905	3239.46
661.235	3352.34
661.565	3432.05
661.895	3413.49
662.225	3315.73
662.555	3268.72
662.884	3293.87
663.214	3352.88
663.544	3525.32
663.873	3593.7
664.203	3666.37
664.533	3881.58
664.862	3924.17
665.192	3782.74
665.521	3436.14
665.85	3142.58
666.18	2960.81
666.509	2951.2
666.838	3025.83
667.167	3135.45
667.496	3129.16
667.825	3025.28
668.154	3036.53
668.483	3079.29
668.812	3206.35
669.141	3264.34
669.47	3348.24
669.798	3353.16
670.127	3270.63
670.456	3519.05
670.784	4398.04
671.113	5253.44
671.441	5995.98
671.77	5884.08
672.098	5463.95
672.426	4547.87
672.755	3942.89
673.083	3744.97
673.411	3726.48
673.739	3646.51
674.067	3330.76
674.395	3275.83
674.723	3347.42
675.051	3552.29
675.379	3501.33
675.706	3486.88
676.034	3316.28
676.362	3245.47
676.689	3604.32
677.017	4227.67
677.344	4634.26
677.672	4571.02
677.999	4400.19
678.327	4539.52
678.654	4954.03
678.981	5259.04
679.308	5289.76
679.636	4936.34
679.963	4489.96
680.29	4242
680.617	4463.82
680.944	4594.44
681.271	4466.52
681.597	3970
681.924	3463.7
682.251	3366.27
682.578	3727.02
682.904	4189.29
683.231	4589.05
683.557	4853.47
683.884	5160.96
684.21	5439.43
684.536	5808.97
684.863	6042.87
685.189	5946.94
685.515	5429.3
685.841	4996.37
686.167	4901.49
686.493	5084.73
686.819	5009.23
687.145	4655.77
687.471	4098.93
687.797	3735.72
688.123	3693.85
688.448	3912.78
688.774	4248.75
689.1	4144.12
689.425	3848.74
689.751	3648.96
690.076	3979.49
690.402	4588.52
690.727	4956.98
691.052	4885.4
691.377	4522.83
691.703	4341.38
692.028	4308.98
692.353	4478.11
692.678	4436.6
693.003	4270.9
693.328	3665.83
693.652	3278.29
693.977	3282.66
694.302	3651.14
694.627	3886.46
694.951	3718.87
695.276	3182.82
695.6	2898.21
695.925	3593.42
696.249	4704.43
696.574	5389.83
696.898	5161.23
697.222	4555.95
697.546	4212.54
697.871	3988.16
698.195	3943.16
698.519	3722.13
698.843	3605.95
699.167	3342.23
699.491	3085.05
699.814	2973.43
700.138	2931.71
700.462	2914.41
700.786	2863.59
701.109	3049.69
701.433	3322.56
701.756	3511.14
702.08	3589.88
702.403	3471.06
702.726	3192.4
703.05	3017.33
703.373	2917.98
703.696	2900.4
704.019	2803.11
704.342	2569.82
704.665	2361.27
704.988	2355.47
705.311	2611.18
705.634	3176.8
705.957	3990.6
706.28	4607.08
706.602	4842.47
706.925	4718.41
707.247	4411.79
707.57	4036.39
707.892	3834.07
708.215	3496.69
708.537	3207.72
708.859	3187.47
709.182	3220.58
709.504	3403.4
709.826	3551.48
710.148	3483.88
710.47	3323.93
710.792	3141.21
711.114	2912.21
711.436	2745.33
711.758	2810.53
712.079	2870.73
712.401	3161.74
712.723	3412.13
713.044	3801.21
713.366	3999.54
713.687	3947.77
714.009	3756.65
714.33	3636.44
714.652	3400.12
714.973	3200.06
715.294	2851.5
715.615	2602.91
715.936	2448.35
716.257	2349.1
716.578	2359.89
716.899	2487.85
717.22	2753.86
717.541	2937.75
717.862	3008.83
718.182	2967.4
718.503	3092.17
718.824	3113.27
719.144	2993.19
719.465	2856.99
719.785	2868.81
720.105	2976.45
720.426	3066.96
720.746	3076
721.066	3003.89
721.386	2895.46
721.706	2767.35
722.026	2641.23
722.346	2558.23
722.666	2712.57
722.986	2770.37
723.306	2772.57
723.626	2667.4
723.946	2599.88
724.265	2836.65
724.585	3208.54
724.904	3354.52
725.224	3403.12
725.543	3337.04
725.863	3266.53
726.182	3087.79
726.501	2941.59
726.82	2903.15
727.14	3067.23
727.459	3247.39
727.778	3321.19
728.097	3278.83
728.416	3291.13
728.734	3560.47
729.053	3693.03
729.372	3644.6
729.691	3796.32
730.009	4223.35
730.328	4504.78
730.647	4578.02
730.965	4284.95
731.283	4029.07
731.602	3799.04
731.92	3942.07
732.238	4078.09
732.557	4271.17
732.875	4374.3
733.193	4871.72
733.511	5270.8
733.829	5072.41
734.147	4506.13
734.465	4094.87
734.782	4046.68
735.1	4206.59
735.418	4232.81
735.735	4255.78
736.053	4310.33
736.371	4252.26
736.688	3990.6
737.005	3564.28
737.323	3264.34
737.64	3225.51
737.957	3460.15
738.274	4114.63
738.592	4504.51
738.909	4325.99
739.226	3706.09
739.543	3189.39
739.86	2808.88
740.176	2658.31
740.493	2514.08
740.81	2402.48
741.127	2471
741.443	2681.18
741.76	2942.42
742.076	2930.89
742.393	2676.22
742.709	2449.18
743.025	2281.3
743.342	2304
743.658	2398.05
743.974	2528.15
744.29	2560.16
744.606	2462.72
744.922	2440.06
745.238	2454.43
745.554	2385.89
745.87	2276.04
746.186	2456.09
746.501	2685.03
746.817	2655.01
747.132	2380.91
747.448	2124.15
747.763	2073.35
748.079	2281.02
748.394	2697.15
748.71	3083.95
749.025	3463.42
749.34	3629.09
749.655	3556.38
749.97	3326.39
750.285	3254.22
750.6	3294.41
750.915	3548.21
751.23	3493.15
751.545	3272.27
751.859	2985.51
752.174	2877.88
752.489	3124.5
752.803	3492.06
753.118	3649.23
753.432	3499.42
753.747	3224.69
754.061	3338.41
754.375	3591.79
754.689	3860.95
755.004	3967.29
755.318	4141.69
755.632	4450.35
755.946	4725.66
756.26	5094.36
756.573	5613.87
756.887	6053.73
757.201	5925.99
757.515	5094.89
757.828	4364.31
758.142	4261.72
758.455	4796.03
758.769	5437.83
759.082	5748.68
759.396	5883.55
759.709	6079.68
760.022	6022.74
760.335	5610.94
760.648	4835.22
760.962	4194.43
761.275	3753.94
761.587	3609.22
761.9	3615.75
762.213	3731.92
762.526	4045.33
762.839	4060.22
763.151	4314.65
763.464	4808.92
763.776	5537.21
764.089	5870.82
764.401	5621.32
764.714	5033.6
765.026	4487.81
765.338	3867.47
765.65	3392.2
765.962	3064.49
766.275	2833.9
766.587	2741.75
766.898	2911.39
767.21	3224.69
767.522	3765.89
767.834	4137.9
768.146	4076.74
768.457	3767.8
768.769	3355.61
769.08	3223.32
769.392	3454.7
769.703	3817.51
770.015	4187.13
770.326	4242.54
770.637	4022.57
770.948	3477.88
771.26	3076.28
771.571	2959.44
771.882	3055.17
772.193	3084.5
772.504	2918.26
772.814	2809.98
773.125	2656.94
773.436	2472.38
773.747	2378.14
774.057	2278.25
774.368	2258.87
774.678	2123.31
774.989	1989.74
775.299	1915.21
775.609	1960.55
775.919	1954.99
776.23	1981.12
776.54	1967.78
776.85	1929.4
777.16	1986.13
777.47	2243.63
777.78	2499.17
778.089	2770.92
778.399	2815.21
778.709	2699.36
779.019	2400.82
779.328	2076.13
779.638	2067.52
779.947	2472.66
780.257	2947.63
780.566	3270.08
780.875	3194.31
781.185	2923.2
781.494	2718.63
781.803	2617.25
782.112	2509.11
782.421	2567.61
782.73	2677.6
783.039	2658.86
783.348	2348.83
783.656	2039.48
783.965	1977.79
784.274	2114.99
784.582	2230.34
784.891	2318.39
785.199	2261.08
785.508	2095.01
785.816	2064.47
786.124	2076.96
786.432	2346.34
786.741	2541.12
787.049	2637.37
787.357	2535.88
787.665	2520.98
787.973	2507.73
788.281	2435.64
788.588	2170.19
788.896	1959.44
789.204	1833.09
789.511	1772.63
789.819	1687.28
790.126	1681.42
790.434	1702.91
790.741	1673.89
791.049	1678.07
791.356	1608.82
791.663	1465.09
791.97	1480.48
792.277	1532.8
792.584	1698.17
792.891	2100.56
793.198	2589.95
793.505	2712.57
793.812	2589.68
794.119	2471
794.425	2325.86
794.732	2166.58
795.038	1812.76
795.345	1545.1
795.651	1384.71
795.958	1326.12
796.264	1467.33
796.57	1643.74
796.876	1712.12
797.183	1631.73
797.489	1517.13
797.795	1442.69
798.101	1539.79
798.406	1456.97
798.712	1406.57
799.018	1339.02
799.324	1345.75
799.629	1278.15
799.935	1325.84
800.24	1244.19
800.546	1236.33
800.851	1219.2
801.157	1149.52
801.462	1088.49
801.767	1092.71
802.072	1175.94
802.377	1280.96
802.682	1301.72
802.987	1287.97
803.292	1158.23
803.597	1140.8
803.902	1117.74
804.207	1173.13
804.511	1194.2
804.816	1317.43
805.12	1572.22
805.425	1764.82
805.729	1772.63
806.034	1682.26
806.338	1549.57
806.642	1414.41
806.946	1402.92
807.251	1400.4
807.555	1446.61
807.859	1457.53
808.162	1418.05
808.466	1307.61
808.77	1238.01
809.074	1165.26
809.378	1180.15
809.681	1107.9
809.985	1141.64
810.288	1145.02
810.592	1068.79
810.895	1052.75
811.198	1009.67
811.502	908.48
811.805	902.56
812.108	928.78
812.411	1011.92
812.714	1178.46
813.017	1346.03
813.32	1364.81
813.623	1291.06
813.926	1140.52
814.228	1025.16
814.531	947.39
814.833	898.32
815.136	882.24
815.438	907.35
815.741	938.37
816.043	983.18
816.345	1008.82
816.648	1000.09
816.95	952.47
817.252	950.77
817.554	907.07
817.856	863.9
818.158	850.92
818.46	808
818.761	855.43
819.063	832.28
819.365	900.3
819.666	1011.36
819.968	1086.24
820.269	1100.58
820.571	1094.68
820.872	1008.26
821.173	909.32
821.475	855.72
821.776	847.53
822.077	844.99
822.378	825.79
822.679	813.36
822.98	786.81
823.281	817.6
823.581	811.95
823.882	787.94
824.183	812.23
824.483	837.65
824.784	858.54
825.084	889.86
825.385	901.43
825.685	861.92
825.985	815.91
826.286	837.93
826.586	888.73
826.886	911.3
827.186	894.09
827.486	845.27
827.786	830.59
828.086	820.14
828.386	843.29
828.685	830.87
828.985	806.58
829.285	788.79
829.584	724.06
829.884	737.92
830.183	702.85
830.482	670.31
830.782	676.82
831.081	619.07
831.38	611.43
831.679	643.42
831.978	665.78
832.277	692.95
832.576	709.92
832.875	707.94
833.174	704.55
833.472	741.03
833.771	701.15
834.07	739.33
834.368	729.15
834.667	716.14
834.965	696.63
835.263	661.54
835.562	695.21
835.86	626.44
836.158	619.92
836.456	598.11
836.754	580.83
837.052	609.73
837.35	596.13
837.648	580.83
837.946	588.2
838.243	566.66
838.541	576.01
838.839	604.63
839.136	611.71
839.434	645.12
839.731	611.71
840.028	610.86
840.326	617.66
840.623	586.78
840.92	576.3
841.217	596.41
841.514	598.68
841.811	553.34
842.108	549.66
842.405	570.63
842.701	536.33
842.998	526.12
843.295	551.07
843.591	543.99
843.888	561.84
844.184	544.55
844.481	538.88
844.777	543.42
845.073	548.81
845.369	561.56
845.665	515.35
845.962	549.66
846.258	540.3
846.553	503.44
846.849	537.47
847.145	541.72
847.441	548.52
847.737	560.14
848.032	525.27
848.328	517.62
848.623	523.29
848.919	524.42
849.214	515.06
849.509	544.27
849.805	514.78
850.1	490.95
850.395	525.84
850.69	528.39
850.985	515.63
851.28	544.84
851.575	508.54
851.869	541.72
852.164	564.11
852.459	595.85
852.753	627.57
853.048	669.18
853.342	699.45
853.637	717.56
853.931	686.44
854.225	691.25
854.52	665.22
854.814	660.97
855.108	645.4
855.402	633.23
855.696	616.24
855.99	615.96
856.283	627.28
856.577	603.78
856.871	587.91
857.164	605.76
857.458	568.08
857.751	572.61
858.045	588.76
858.338	554.76
858.632	556.46
858.925	579.7
859.218	547.67
859.511	562.98
859.804	542.85
860.097	543.99
860.39	540.87
860.683	522.72
860.976	527.83
861.268	515.06
861.561	514.5
861.854	526.12
862.146	507.12
862.439	513.93
862.731	526.69
863.023	520.17
863.316	527.26
863.608	530.94
863.9	524.71
864.192	546.25
864.484	497.48
864.776	523.29
865.068	507.41
865.36	501.45
865.651	497.19
865.943	519.32
866.235	485.56
866.526	500.03
866.818	505.99
867.109	532.36
867.4	536.33
867.692	503.44
867.983	526.69
868.274	504.85
868.565	538.32
868.856	530.38
869.147	527.54
869.438	497.48
869.729	479.6
870.02	504.57
870.31	487.26
870.601	505.7
870.892	492.37
871.182	515.91
871.473	511.94
871.763	542.85
872.053	534.91
872.343	510.53
872.634	499.75
872.924	492.94
873.214	500.03
873.504	507.97
873.794	478.75
874.084	483.58
874.373	485.56
874.663	504.57
874.953	510.81
875.242	511.38
875.532	502.02
875.821	521.87
876.111	493.22
876.4	509.68
876.689	518.47
876.978	512.23
877.268	502.87
877.557	501.73
877.846	507.12
878.134	515.06
878.423	515.06
878.712	515.06
