Data from FLMS007011_11-00-03-469.txt Node
Date: Thu Apr 21 11:00:03 MDT 2016
User: lab_user
Spectrometer: FLMS00701
Autoset integration time: false
Trigger mode: 0
Integration Time (sec): 5.000000E-3
Scans to average: 10
Electric dark correction enabled: true
Nonlinearity correction enabled: true
Boxcar width: 0
XAxis mode: Wavelengths
Stop averaging: false
Number of Pixels in Spectrum: 2048
>>>>>Begin Spectral Data<<<<<
178.41	25.85
178.791	25.85
179.172	25.85
179.553	-57.88
179.934	-53.87
180.316	-64.17
180.697	-71.32
181.078	-43.3
181.459	-72.46
181.84	-8.14
182.221	-34.72
182.602	-17
182.983	-6.14
183.364	30.99
183.744	59.83
184.125	71.24
184.506	86.37
184.887	102.63
185.268	152.25
185.648	179.04
186.029	161.37
186.41	185.6
186.791	222.06
187.171	292.65
187.552	418.86
187.932	421.41
188.313	445.55
188.694	456.62
189.074	481.59
189.455	500.31
189.835	508.26
190.216	523.57
190.596	532.93
190.977	566.95
191.357	585.93
191.737	581.68
192.118	595.56
192.498	621.62
192.878	626.44
193.258	630.97
193.639	632.1
194.019	658.99
194.399	653.61
194.779	656.73
195.159	665.22
195.54	664.65
195.92	684.18
196.3	699.17
196.68	715.29
197.06	731.98
197.44	741.31
197.82	737.63
198.2	796.13
198.58	831.15
198.959	848.94
199.339	839.34
199.719	846.96
200.099	858.82
200.479	837.08
200.858	851.48
201.238	816.47
201.618	828.61
201.998	805.46
202.377	822.4
202.757	890.99
203.136	922.3
203.516	928.22
203.896	969.1
204.275	998.96
204.655	1067.38
205.034	1112.68
205.414	1175.65
205.793	1231.84
206.172	1245.31
206.552	1284.61
206.931	1290.5
207.31	1316.31
207.69	1321.64
208.069	1325.28
208.448	1301.44
208.827	1310.14
209.207	1295.55
209.586	1309.02
209.965	1375.18
210.344	1381.63
210.723	1427.01
211.102	1496.99
211.481	1580.6
211.86	1648.48
212.239	1709.88
212.618	1842.84
212.997	1907.42
213.376	2043.64
213.755	2113.6
214.134	2175.46
214.513	2177.4
214.891	2276.59
215.27	2324.48
215.649	2362.1
216.028	2352.98
216.406	2348.55
216.785	2355.47
217.164	2354.36
217.542	2325.86
217.921	2385.33
218.3	2373.44
218.678	2441.17
219.057	2490.33
219.435	2597.4
219.814	2696.6
220.192	2848.75
220.57	2991.54
220.949	3194.31
221.327	3394.12
221.705	3626.37
222.084	3808.28
222.462	4007.67
222.84	4153.59
223.218	4443.07
223.597	4555.14
223.975	4687.77
224.353	4795.5
224.731	4913.82
225.109	5030.92
225.487	5067.06
225.865	5078.57
226.243	5109.08
226.621	5099.18
226.999	5144.12
227.377	5197.86
227.755	5162.3
228.133	5218.17
228.511	5317.79
228.889	5455.95
229.266	5589.12
229.644	5859.67
230.022	6124.15
230.4	6388.71
230.777	6776.47
231.155	7141.54
231.533	7531.46
231.91	7951.19
232.288	8473.73
232.665	8827.09
233.043	9157.29
233.42	9459.15
233.798	9870.97
234.175	10218.21
234.553	10474.14
234.93	10648.4
235.307	10876.63
235.685	11026.81
236.062	11197.9
236.439	11230.12
236.816	11443.05
237.194	11429.12
237.571	11464.84
237.948	11404.8
238.325	11519.29
238.702	11410.12
239.079	11500.29
239.456	11470.16
239.833	11594.72
240.21	11778.61
240.587	11758.14
240.964	11997.66
241.341	12260.05
241.718	12733.91
242.095	12908.59
242.472	13318.95
242.849	13732.49
243.225	14319.28
243.602	14725.04
243.979	15021.41
244.356	15534.67
244.732	16001.39
245.109	16426.05
245.486	16849.69
245.862	17179.65
246.239	17409.76
246.615	17669.38
246.992	18004.61
247.368	18116.88
247.745	18321.35
248.121	18439.46
248.497	18411.11
248.874	18538.32
249.25	18698.03
249.626	18532.65
250.003	18581.71
250.379	18705.67
250.755	18478.17
251.131	18440.94
251.507	18305.08
251.884	18298.17
252.26	18214.07
252.636	18276.72
253.012	18218.26
253.388	18375.85
253.764	18513.18
254.14	18586.64
254.516	18828.63
254.892	19072
255.268	19400.44
255.643	19658.36
256.019	20143.43
256.395	20522.77
256.771	20917.94
257.147	21367.24
257.522	21672.01
257.898	22162.07
258.274	22417.61
258.649	22874.37
259.025	23200.27
259.4	23409.83
259.776	23733.24
260.151	23907.21
260.527	24139.82
260.902	24303.48
261.278	24282.14
261.653	24348.39
262.028	24396.23
262.404	24490.7
262.779	24356.48
263.154	24405.8
263.53	24393.53
263.905	24050.51
264.28	24038.24
264.655	23897.15
265.03	23475.59
265.405	23486.64
265.781	23210.33
266.156	23058.67
266.531	23002.72
266.906	22595.81
267.281	22589.92
267.655	22203.81
268.03	22111.26
268.405	21942.1
268.78	21990.72
269.155	22010.6
269.53	21924.18
269.904	22114.69
270.279	22331.7
270.654	22484.87
271.029	22447.31
271.403	22882.71
271.778	23010.08
272.152	23232.66
272.527	23519.03
272.901	23968.31
273.276	24340.78
273.65	24548.12
274.025	24884.04
274.399	24922.81
274.774	25274.46
275.148	25492.38
275.522	25449.19
275.897	25630.06
276.271	25684.3
276.645	25999.2
277.019	26081.43
277.393	26093.21
277.768	26036.51
278.142	26023.25
278.516	25947.41
278.89	25871.32
279.264	25962.38
279.638	25894.15
280.012	25767.26
280.386	25323.05
280.76	25329.19
281.133	25409.68
281.507	25152.74
281.881	25006.98
282.255	24880.85
282.629	24595.72
283.002	24315.51
283.376	24201.41
283.75	23840.22
284.123	23812.74
284.497	23452.77
284.87	23368.61
285.244	23226.77
285.618	23112.17
285.991	22898.17
286.364	22839.52
286.738	22946.77
287.111	22981.86
287.485	22878.54
287.858	22846.88
288.231	22975.23
288.605	23009.84
288.978	23228.49
289.351	23164.44
289.724	23331.55
290.097	23582.09
290.47	23604.66
290.843	23763.91
291.217	23875.8
291.59	23780.35
291.963	24109.15
292.336	24157.73
292.708	24227.91
293.081	24247.78
293.454	24526.04
293.827	24359.67
294.2	24342.74
294.573	24484.32
294.945	24257.6
295.318	24501.74
295.691	24438.93
296.064	24347.16
296.436	24324.09
296.809	24475.24
297.181	24245.09
297.554	24137.61
297.926	24101.79
298.299	24070.38
298.671	24218.83
299.044	23858.14
299.416	23783.79
299.788	23677.54
300.161	23537.92
300.533	23452.53
300.905	23536.69
301.278	23362.23
301.65	23282.72
302.022	23082.97
302.394	22784.05
302.766	22745.52
303.138	22454.43
303.51	22518.25
303.882	22211.66
304.254	22158.64
304.626	22070.01
304.998	21957.57
305.37	21517.55
305.742	21637.88
306.114	21587.78
306.485	21550.95
306.857	21564.95
307.229	21312.96
307.601	21327.45
307.972	21349.56
308.344	21408.75
308.716	21353.98
309.087	21479.24
309.459	21301.42
309.83	21487.1
310.202	21673.98
310.573	21782.76
310.945	21941.12
311.316	21850.28
311.687	22241.61
312.059	22138.02
312.43	22379.07
312.801	22425.96
313.172	22452.71
313.544	22588.69
313.915	22891.3
314.286	22923.21
314.657	23059.65
315.028	22976.46
315.399	23145.79
315.77	23405.66
316.141	23350.45
316.512	23391.92
316.883	23440.5
317.254	23451.79
317.625	23198.3
317.996	23463.57
318.366	23455.47
318.737	23364.92
319.108	23486.39
319.478	23301.12
319.849	23277.32
320.22	23281.49
320.59	23275.6
320.961	23099.65
321.331	23118.55
321.702	22909.95
322.072	22763.68
322.443	22849.34
322.813	22701.1
323.184	22626.49
323.554	22391.84
323.924	22297.33
324.295	22175.58
324.665	21831.13
325.035	21957.57
325.405	21710.81
325.775	21405.8
326.145	21364.3
326.515	21152.31
326.886	20910.08
327.256	20747.9
327.626	20371.84
327.995	20127.44
328.365	19945.94
328.735	19706.09
329.105	19209.89
329.475	18666
329.845	18303.6
330.215	18460.17
330.584	18837.25
330.954	19542.95
331.324	20415.6
331.693	20886.73
332.063	21170
332.432	21543.83
332.802	21216.92
333.171	20866.58
333.541	20114.16
333.91	19969.31
334.28	19752.34
334.649	19728.23
335.018	19672.63
335.388	19740.29
335.757	19705.6
336.126	19634.24
336.495	19765.63
336.865	19691.57
337.234	19824.92
337.603	19799.83
337.972	19881.25
338.341	20071.86
338.71	20153.02
339.079	20202.69
339.448	20376.51
339.817	20379.21
340.186	20388.8
340.554	20461.07
340.923	20590.36
341.292	20338.9
341.661	20603.64
342.029	20755.02
342.398	20583.48
342.767	20563.08
343.135	20725.53
343.504	20636.82
343.872	20868.06
344.241	20811.54
344.609	20659.43
344.978	20655.99
345.346	20819.16
345.715	20668.77
346.083	20607.32
346.451	20611.5
346.82	20463.04
347.188	20548.83
347.556	20434.77
347.924	20525.97
348.292	20268.58
348.66	20283.09
349.028	20121.54
349.396	20163.84
349.764	20149.33
350.132	20079.49
350.5	20062.52
350.868	19949.38
351.236	19941.27
351.604	19724.05
351.972	19717.65
352.34	19434.9
352.707	19399.46
353.075	19381.98
353.443	19132.82
353.81	19068.55
354.178	18956.24
354.545	18941.7
354.913	18805.71
355.28	18630.51
355.648	18676.59
356.015	18505.29
356.383	18503.81
356.75	18236.27
357.117	18175.09
357.485	18074.69
357.852	17996.71
358.219	17928.85
358.586	17839.74
358.954	17750.62
359.321	17639.25
359.688	17510.81
360.055	17448.06
360.422	17373.93
360.789	17226.87
361.156	17202.89
361.523	17077.52
361.89	16998.13
362.256	17188.3
362.623	16967.95
362.99	17058.73
363.357	16955.58
363.724	16991.21
364.09	16922.68
364.457	16921.44
364.823	17151.46
365.19	17015.2
365.557	17203.87
365.923	17163.08
366.29	17180.63
366.656	17203.87
367.022	17400.37
367.389	17330.19
367.755	17222.17
368.121	17299.04
368.488	17412.48
368.854	17324.25
369.22	17281
369.586	17217.97
369.952	17166.54
370.318	17176.93
370.684	17231.32
371.051	17257.02
371.416	17165.55
371.782	17286.44
372.148	17246.89
372.514	17158.88
372.88	17184.1
373.246	17290.39
373.612	17481.66
373.977	17432.49
374.343	17548.11
374.709	17819
375.074	17513.28
375.44	17460.16
375.806	17415.94
376.171	17592.32
376.537	17613.32
376.902	17574.29
377.268	17829.62
377.633	17781.73
377.998	17957.72
378.364	18233.31
378.729	18124.52
379.094	17999.18
379.459	17534.53
379.825	17499.69
380.19	17473.51
380.555	17164.56
380.92	16976.86
381.285	16916
381.65	17035.23
382.015	17117.58
382.38	16926.14
382.745	16720.99
383.11	16645.49
383.474	16670.99
383.839	16580.86
384.204	16534.3
384.569	16420.35
384.933	16356.18
385.298	16212.92
385.663	16177.97
386.027	16158.38
386.392	16314.3
386.756	16323.47
387.121	16555.6
387.485	16624.19
387.849	16621.72
388.214	16292.74
388.578	16072.58
388.942	15853.26
389.307	15828.94
389.671	15665.08
390.035	15786.74
390.399	15717.72
390.763	15802.38
391.127	16008.34
391.492	16391.37
391.856	16680.39
392.219	16796.48
392.583	16617.01
392.947	15932.17
393.311	15489.7
393.675	15312.97
394.039	15175.19
394.403	15079.9
394.766	14912.12
395.13	14858.82
395.494	14762.67
395.857	14802.78
396.221	15022.16
396.584	15199.07
396.948	15439.75
397.311	15870.39
397.675	16140.77
398.038	15940.86
398.401	15503.86
398.765	15130.16
399.128	14796.55
399.491	14433.82
399.854	14343.99
400.218	14453.53
400.581	14271.36
400.944	14140.5
401.307	13887.33
401.67	13950.34
402.033	13947.09
402.396	13915.84
402.759	13954.09
403.122	14080.55
403.485	14283.09
403.847	14465.01
404.21	14727.54
404.573	14920.09
404.936	14998.51
405.298	14623.11
405.661	14380.93
406.023	14036.32
406.386	13993.83
406.749	13886.58
407.111	13853.07
407.473	14422.35
407.836	14615.63
408.198	14745.98
408.561	14746.22
408.923	14775.62
409.285	14691.9
409.647	14519.88
410.009	14258.62
410.372	14412.87
410.734	14316.79
411.096	14341
411.458	14426.84
411.82	14613.38
412.182	14761.67
412.544	14863.31
412.906	14851.35
413.267	14853.84
413.629	14604.66
413.991	14409.87
414.353	14434.57
414.714	14148
415.076	14264.37
415.438	14389.91
415.799	14290.08
416.161	14165.98
416.522	14045.57
416.884	13980.84
417.245	14021.08
417.607	13950.84
417.968	13984.58
418.329	14031.57
418.691	14140.75
419.052	14136.76
419.413	14315.54
419.774	14537.83
420.135	15044.56
420.497	15656.64
420.858	16104.82
421.219	15988.99
421.58	15502.87
421.941	15135.14
422.302	14587.45
422.662	14555.04
423.023	14283.34
423.384	14232.91
423.745	14240.4
424.106	14311.05
424.466	14509.9
424.827	14049.81
425.187	13630.62
425.548	13269.04
425.909	13212.86
426.269	13397.16
426.63	13519.93
426.99	13878.58
427.35	13633.37
427.711	13717.47
428.071	13880.58
428.431	14492.44
428.792	15460.13
429.152	16390.87
429.512	16401.28
429.872	16038.6
430.232	15571.94
430.592	14732.52
430.952	13776.77
431.312	13138.59
431.672	12758.3
432.032	12784.95
432.392	13231.17
432.752	14490.45
433.111	15084.13
433.471	14670.72
433.831	13537.21
434.19	13493.88
434.55	13464.06
434.91	12978.68
435.269	13388.89
435.629	13444.02
435.988	13585.55
436.348	13114.75
436.707	12686.37
437.066	12590.52
437.426	12837.48
437.785	12852.56
438.144	12928.19
438.503	12631.03
438.862	12427.37
439.222	12204.32
439.581	12062.03
439.94	12361.12
440.299	13275.56
440.658	13947.34
441.017	13996.58
441.376	13625.11
441.734	13399.66
442.093	13220.64
442.452	13409.44
442.811	13626.86
443.169	13607.83
443.528	13135.33
443.887	12950.04
444.245	12982.95
444.604	12688.13
444.962	12472.7
445.321	12608.63
445.679	12651.16
446.038	12835.72
446.396	12493.6
446.754	12214.66
447.112	12109.22
447.471	11979.48
447.829	11883.75
448.187	11925.43
448.545	12052.94
448.903	12015.84
449.261	12013.06
449.619	11838.01
449.977	11798.33
450.335	11641.03
450.693	11540.81
451.051	11600.04
451.409	11523.08
451.766	11569.16
452.124	11321.67
452.482	11079.12
452.839	10895.7
453.197	10832.38
453.555	10836.45
453.912	10826.28
454.27	11291.5
454.627	11600.54
454.984	11600.04
455.342	11298.6
455.699	11041.79
456.056	11129.89
456.414	11452.68
456.771	11844.84
457.128	11975.19
457.485	12139.25
457.842	11979.73
458.199	12045.12
458.556	12377.24
458.913	12360.36
459.27	12570.89
459.627	12134.45
459.984	12293.58
460.341	12452.81
460.697	12047.9
461.054	11489.66
461.411	10995.57
461.767	10771.34
462.124	10846.88
462.481	11120.25
462.837	11433.68
463.194	12041.08
463.55	11960.79
463.907	12502.16
464.263	12955.07
464.619	13438.26
464.976	13846.57
465.332	13767.27
465.688	13095.18
466.044	12187.17
466.4	11823.86
466.756	11632.43
467.112	11693.9
467.468	11694.16
467.824	11435.45
468.18	11189.02
468.536	11143.85
468.892	10918.06
469.248	10656.04
469.604	10673.86
469.959	10546.77
470.315	10561.55
470.671	10631.85
471.026	10791.43
471.382	11003.95
471.737	11218.96
472.093	11440.77
472.448	11946.14
472.804	12205.08
473.159	12394.62
473.514	12366.91
473.87	12636.81
474.225	13269.3
474.58	13873.08
474.935	13772.52
475.29	13342.76
475.645	13209.6
476	13099.44
476.355	12970.64
476.71	12891.01
477.065	13593.31
477.42	14068.55
477.775	13970.09
478.13	13774.52
478.485	13887.58
478.839	14213.43
479.194	14920.58
479.549	15383.58
479.903	15328.39
480.258	14960.17
480.612	15373.38
480.967	16085.23
481.321	16010.82
481.675	15434.78
482.03	14772.88
482.384	14677.94
482.738	14822.96
483.093	15119.21
483.447	15674.52
483.801	16499.62
484.155	17077.52
484.509	21948.49
484.863	47412
485.217	58572.68
485.571	56647.82
485.925	35094.03
486.279	25703.94
486.632	21777.35
486.986	18590.09
487.34	16259.03
487.694	15305.26
488.047	15071.93
488.401	15052.52
488.754	14579.97
489.108	14339.5
489.461	14086.04
489.815	13745.25
490.168	14087.04
490.522	14104.53
490.875	13995.58
491.228	13786.78
491.581	13944.59
491.935	13829.31
492.288	13708.71
492.641	13929.84
492.994	13834.81
493.347	14150
493.7	14132.26
494.053	14007.58
494.406	13469.33
494.759	13046.98
495.111	13810.05
495.464	15009.21
495.817	15573.18
496.169	14670.22
496.522	13527.19
496.875	12596.81
497.227	12360.36
497.58	12351.79
497.932	12676.81
498.285	12753.02
498.637	13328.22
498.989	13737.99
499.342	13584.55
499.694	13033.17
500.046	12677.07
500.398	13395.4
500.751	13660.66
501.103	13710.46
501.455	13642.13
501.807	13660.41
502.159	13718.47
502.511	13658.65
502.862	13637.13
503.214	13196.3
503.566	12747.74
503.918	12439.21
504.27	12552.26
504.621	12490.33
504.973	12433.92
505.324	12519.28
505.676	12966.12
506.027	12967.12
506.379	12132.69
506.73	11833.47
507.082	12050.17
507.433	12512.99
507.784	12652.66
508.136	12446.76
508.487	12072.63
508.838	11945.89
509.189	11976.7
509.54	12279.46
509.891	12114.27
510.242	12033
510.593	11930.23
510.944	11862.27
511.295	11444.57
511.646	11241.28
511.996	11404.54
512.347	11665.82
512.698	11630.91
513.049	11469.4
513.399	11372.87
513.75	11416.45
514.1	11088.77
514.451	10790.42
514.801	10673.86
515.152	11056.02
515.502	11314.31
515.852	11629.39
516.202	11583.84
516.553	11370.84
516.903	10998.87
517.253	10741.57
517.603	10653.75
517.953	10790.67
518.303	11327.75
518.653	11562.32
519.003	11387.82
519.353	10674.37
519.703	10154.35
520.052	10097.87
520.402	10191.91
520.752	10522.05
521.102	10303.49
521.451	10134.93
521.801	10226.39
522.15	10402.74
522.5	10568.43
522.849	10591.1
523.199	10890.36
523.548	11012.33
523.897	10874.85
524.246	10515.17
524.596	10215.15
524.945	10320.84
525.294	10344.32
525.643	10442.27
525.992	10459.35
526.341	10632.36
526.69	10543.46
527.039	10286.38
527.388	10099.15
527.737	10779.48
528.086	11640.27
528.434	12097.87
528.783	11598.01
529.132	11101.72
529.48	10779.99
529.829	10718.41
530.177	10498.86
530.526	10365.49
530.874	10612.5
531.223	10606.38
531.571	10506.51
531.919	10529.19
532.268	11252.7
532.616	12049.92
532.964	12463.13
533.312	12484.79
533.66	12324.32
534.008	12344.74
534.356	12419.56
534.704	12224.24
535.052	11885.52
535.4	11422.28
535.748	10878.41
536.095	10217.96
536.443	10336.41
536.791	10671.57
537.139	11251.68
537.486	11809.71
537.834	11851.66
538.181	11968.12
538.529	11911.79
538.876	11980.99
539.223	11548.91
539.571	11148.42
539.918	11161.62
540.265	11591.18
540.613	11886.02
540.96	11742.46
541.307	11631.67
541.654	11610.41
542.001	11534.73
542.348	11472.94
542.695	11504.09
543.042	11903.71
543.388	12100.14
543.735	12204.57
544.082	12273.41
544.429	12097.36
544.775	11714.64
545.122	10958.22
545.469	10532.5
545.815	10620.14
546.162	10758.36
546.508	11311.53
546.854	12076.42
547.201	12982.95
547.547	13096.43
547.893	12637.07
548.24	11360.96
548.586	10436.66
548.932	10124.97
549.278	10073.85
549.624	10261.62
549.97	10034.21
550.316	9501.01
550.662	9401.1
551.008	10287.66
551.353	11497.51
551.699	12146.31
552.045	11547.89
552.391	10889.59
552.736	10765.23
553.082	10746.66
553.427	10403.5
553.773	9731.87
554.118	9591.09
554.464	10113.47
554.809	10950.34
555.154	11306.71
555.5	11261.07
555.845	10441.5
556.19	9857.4
556.535	9429.87
556.88	9724.95
557.225	9756.47
557.57	9389.28
557.915	8962.78
558.26	8744.46
558.605	8705.2
558.95	9039.59
559.295	9994.06
559.639	10789.91
559.984	11631.67
560.329	11721.72
560.673	11700.73
561.018	10990.99
561.362	10429.52
561.707	9950.82
562.051	10124.97
562.395	10253.45
562.74	10768.54
563.084	10925.18
563.428	11537.77
563.772	11426.84
564.117	11471.68
564.461	11455.72
564.805	11147.66
565.149	11428.11
565.493	11316.34
565.836	11749.03
566.18	12011.55
566.524	13733.24
566.868	14548.56
567.212	15071.68
567.555	15386.56
567.899	16903.14
568.242	18292.5
568.586	20858.97
568.929	23616.44
569.273	26472.72
569.616	26662.49
569.96	27432.8
570.303	29208.68
570.646	29933.41
570.989	31805.6
571.333	31322.67
571.676	28855.41
572.019	24651.18
572.362	27302.88
572.705	31648.96
573.048	35204.17
573.391	37623.31
573.733	38750.23
574.076	39584.19
574.419	37411.98
574.762	33705.79
575.104	29414.97
575.447	29803.05
575.789	33718.62
576.132	38103.28
576.474	38846.37
576.817	45471.81
577.159	51623.51
577.501	51346.33
577.844	44320.31
578.186	35054.77
578.528	32212.58
578.87	31914.48
579.212	34076.09
579.554	36473.67
579.896	36122.68
580.238	40367.73
580.58	53427.82
580.922	60103.85
581.264	62234.94
581.606	54066.1
581.947	47233.26
582.289	38158
582.631	30787.97
582.972	27208.33
583.314	27771.77
583.655	29497.35
583.997	35479.55
584.338	41204.78
584.679	45339.98
585.021	43260
585.362	37269.48
585.703	32293.64
586.044	31725.06
586.385	35605.04
586.726	39155.69
587.067	36538.93
587.408	32750.31
587.749	30075.1
588.09	27539.89
588.431	24779.02
588.772	22841.48
589.113	23569.82
589.453	23911.87
589.794	22627.47
590.134	20418.79
590.475	19505.78
590.815	19759.23
591.156	19924.54
591.496	20908.11
591.837	28202.19
592.177	34261.65
592.517	37734.92
592.857	34574.1
593.198	30605.1
593.538	25143.66
593.878	23559.02
594.218	24982.93
594.558	27091.2
594.898	25904.46
595.237	23076.59
595.577	20408.47
595.917	18437.99
596.257	19902.16
596.596	20992.63
596.936	21988.51
597.276	20487.62
597.615	21046.68
597.955	26949.27
598.294	30838.18
598.633	31051.11
598.973	28926.94
599.312	28967.01
599.651	28749.23
599.991	27537.43
600.33	26709.38
600.669	25286.24
601.008	23704.53
601.347	22079.59
601.686	23320.75
602.025	23141.13
602.364	25623.44
602.702	26329.11
603.041	26288.85
603.38	24140.31
603.719	22085.73
604.057	20771
604.396	20885.5
604.734	22558.75
605.073	26816.43
605.411	26241.72
605.75	24666.64
606.088	22247.01
606.426	23185.79
606.764	23891.26
607.103	22769.57
607.441	21009.34
607.779	20195.56
608.117	20449.77
608.455	18866.08
608.793	18394.59
609.131	20945.7
609.469	22185.4
609.806	21713.76
610.144	18821.98
610.482	18295.95
610.819	18456.97
611.157	18178.05
611.495	17026.82
611.832	16870.23
612.17	17141.82
612.507	17628.63
612.844	17158.88
613.182	17137.12
613.519	17424.09
613.856	17439.9
614.193	17786.42
614.53	18678.07
614.867	18789.45
615.205	17096.32
615.541	15969.64
615.878	14516.39
616.215	14945.48
616.552	14690.16
616.889	15310.98
617.226	15590.82
617.562	14797.05
617.899	13040.7
618.235	11820.58
618.572	10921.62
618.908	11700.73
619.245	12730.13
619.581	13279.83
619.918	11436.97
620.254	9018.2
620.59	8629.99
620.926	9761.09
621.262	11031.13
621.599	10997.34
621.935	11339.41
622.271	12162.71
622.606	12672.29
622.942	12207.85
623.278	11470.16
623.614	12392.61
623.95	12624.23
624.285	12274.42
624.621	11064.14
624.957	10297.87
625.292	9796.7
625.628	9150.08
625.963	9030.06
626.299	9445.03
626.634	9664.71
626.969	9423.96
627.304	8062.69
627.64	7051.12
627.975	7121.63
628.31	7942.35
628.645	8468.81
628.98	8075.94
629.315	7869.76
629.65	7663.72
629.985	7723.15
630.319	7130.54
630.654	6903.12
630.989	6963.24
631.323	6765.69
631.658	6278.59
631.993	5750.8
632.327	5675.31
632.662	5756.91
632.996	5970.27
633.33	6009.49
633.665	5817.73
633.999	5407.97
634.333	5335.94
634.667	5311.11
635.001	5596.84
635.335	6044.73
635.669	6519.8
636.003	6390.82
636.337	5827.55
636.671	5286.82
637.005	4939.56
637.339	4999.31
637.672	5306.58
638.006	5542.8
638.339	5442.36
638.673	5189.3
639.006	4850.52
639.34	4885.66
639.673	4687.5
640.007	4653.35
640.34	4530.1
640.673	4400.19
641.006	4343
641.34	4204.7
641.673	4052.64
642.006	3897.04
642.339	4051.55
642.672	4064.82
643.004	4007.13
643.337	3810.45
643.67	3811.81
644.003	3828.92
644.336	3889.45
644.668	3799.58
645.001	3756.11
645.333	3668.55
645.666	3378.55
645.998	3281.02
646.331	3211.28
646.663	3277.47
646.995	3602.68
647.327	4316.27
647.66	4800.6
647.992	5029.04
648.324	4985.92
648.656	4917.31
648.988	4558.91
649.32	3994.39
649.652	3619.02
649.983	3404.49
650.315	3404.76
650.647	3543.03
650.979	3854.71
651.31	4140.88
651.642	4369.44
651.973	4381.85
652.305	4384.82
652.636	4317.62
652.967	4032.32
653.299	3910.61
653.63	3926.07
653.961	4546.52
654.292	7379.17
654.623	56087.65
654.955	68455.4
655.286	68455.4
655.616	68455.4
655.947	68455.4
656.278	68455.4
656.609	51528.51
656.94	31468.69
657.27	22893.02
657.601	17352.68
657.932	12181.62
658.262	8262.04
658.593	5680.63
658.923	4181.72
659.254	3416.22
659.584	2994.56
659.914	2783.85
660.244	2602.91
660.575	2634.89
660.905	2619.45
661.235	2679.8
661.565	2708.44
661.895	2770.1
662.225	2657.49
662.555	2579.47
662.884	2602.08
663.214	2689.72
663.544	2809.71
663.873	2793.76
664.203	2910.02
664.533	3061.75
664.862	3071.07
665.192	2914.96
665.521	2682.28
665.85	2452.77
666.18	2258.04
666.509	2292.65
666.838	2373.44
667.167	2428.73
667.496	2374.83
667.825	2366.81
668.154	2362.66
668.483	2398.05
668.812	2508
669.141	2558.78
669.47	2643.16
669.798	2514.35
670.127	2449.73
670.456	2814.38
670.784	3445.15
671.113	4082.15
671.441	4447.65
671.77	4376.73
672.098	4006.32
672.426	3299.88
672.755	2884.2
673.083	2809.43
673.411	2806.96
673.739	2708.72
674.067	2465.48
674.395	2480.39
674.723	2552.71
675.051	2711.2
675.379	2616.7
675.706	2609.8
676.034	2494.75
676.362	2475.7
676.689	2759.09
677.017	3215.38
677.344	3464.52
677.672	3417.86
677.999	3270.36
678.327	3371.45
678.654	3708.26
678.981	3941.8
679.308	3837.06
679.636	3569.18
679.963	3266.8
680.29	3188.02
680.617	3290.04
680.944	3415.13
681.271	3269.81
681.597	2891.89
681.924	2551.33
682.251	2479.84
682.578	2830.6
682.904	3159.55
683.231	3493.42
683.557	3589.34
683.884	3851.18
684.21	4021.49
684.536	4331.12
684.863	4486.73
685.189	4291.16
685.515	3923.63
685.841	3627.73
686.167	3646.24
686.493	3789.8
686.819	3740.07
687.145	3374.46
687.471	2957.79
687.797	2770.92
688.123	2742.85
688.448	3036.8
688.774	3166.12
689.1	3115.46
689.425	2861.66
689.751	2789.08
690.076	3109.16
690.402	3516.05
690.727	3729.74
691.052	3595.87
691.377	3332.94
691.703	3239.73
692.028	3198.69
692.353	3385.93
692.678	3331.03
693.003	3177.89
693.328	2696.05
693.652	2458.85
693.977	2580.3
694.302	2873.76
694.627	3008.28
694.951	2787.15
695.276	2367.36
695.6	2265.51
695.925	2919.08
696.249	3753.12
696.574	4153.59
696.898	3920.1
697.222	3509.78
697.546	3230.7
697.871	3084.23
698.195	3040.91
698.519	2899.58
698.843	2787.98
699.167	2610.63
699.491	2385.06
699.814	2316.45
700.138	2339.7
700.462	2269.39
700.786	2311.2
701.109	2457.19
701.433	2660.52
701.756	2801.46
702.08	2902.88
702.403	2697.15
702.726	2517.94
703.05	2402.2
703.373	2341.63
703.696	2353.53
704.019	2241.14
704.342	2095.29
704.665	1917.72
704.988	1934.69
705.311	2146.06
705.634	2588.3
705.957	3236.17
706.28	3764.53
706.602	3978.94
706.925	3778.66
707.247	3515.78
707.57	3224.41
707.892	3036.8
708.215	2818.78
708.537	2637.37
708.859	2602.36
709.182	2683.11
709.504	2804.48
709.826	2922.65
710.148	2868.81
710.47	2718.36
710.792	2553.82
711.114	2381.74
711.436	2233.66
711.758	2300.12
712.079	2438.13
712.401	2641.5
712.723	2850.67
713.044	3151.89
713.366	3273.64
713.687	3250.4
714.009	3059.56
714.33	2983.31
714.652	2806.13
714.973	2645.64
715.294	2375.1
715.615	2151.89
715.936	2071.41
716.257	2011.14
716.578	2018.92
716.899	2150.22
717.22	2374.27
717.541	2519.05
717.862	2554.64
718.182	2523.46
718.503	2648.67
718.824	2612.56
719.144	2506.07
719.465	2390.03
719.785	2494.48
720.105	2537.81
720.426	2598.5
720.746	2571.75
721.066	2544.44
721.386	2479.01
721.706	2355.19
722.026	2240.59
722.346	2218.42
722.666	2254.71
722.986	2366.81
723.306	2373.72
723.626	2269.67
723.946	2277.14
724.265	2524.84
724.585	2770.65
724.904	2894.36
725.224	2878.98
725.543	2874.58
725.863	2814.66
726.182	2666.85
726.501	2480.94
726.82	2528.15
727.14	2676.22
727.459	2814.38
727.778	2824.56
728.097	2839.95
728.416	2852.32
728.734	3037.62
729.053	3149.15
729.372	3079.29
729.691	3322.56
730.009	3657.67
730.328	3892.7
730.647	3898.94
730.965	3617.93
731.283	3419.23
731.602	3235.63
731.92	3405.85
732.238	3574.9
732.557	3653.31
732.875	3782.74
733.193	4287.92
733.511	4522.02
733.829	4297.37
734.147	3824.03
734.465	3504.05
734.782	3505.69
735.1	3625.82
735.418	3708.26
735.735	3687.05
736.053	3690.04
736.371	3668.82
736.688	3350.97
737.005	3103.68
737.323	2768.72
737.64	2812.18
737.957	3091.9
738.274	3626.1
738.592	3872.08
738.909	3713.16
739.226	3117.93
739.543	2693.3
739.86	2479.56
740.176	2330.01
740.493	2135.52
740.81	2122.48
741.127	2164.37
741.443	2401.92
741.76	2557.4
742.076	2548.85
742.393	2298.19
742.709	2075.3
743.025	2019.75
743.342	2017.25
743.658	2100.56
743.974	2247.79
744.29	2267.73
744.606	2183.5
744.922	2156.6
745.238	2125.53
745.554	2051.97
745.87	2046.97
746.186	2188.76
746.501	2335.82
746.817	2309.81
747.132	2029.2
747.448	1871.24
747.763	1843.96
748.079	2035.86
748.394	2425.42
748.71	2704.04
749.025	3051.88
749.34	3177.07
749.655	3091.9
749.97	2908.92
750.285	2775.33
750.6	2968.22
750.915	3059.56
751.23	3017.06
751.545	2816.03
751.859	2553.82
752.174	2484.81
752.489	2793.21
752.803	3079.02
753.118	3131.35
753.432	3018.43
753.747	2780
754.061	2911.12
754.375	3140.66
754.689	3356.16
755.004	3457.7
755.318	3613.57
755.632	3861.49
755.946	4077.82
756.26	4468.13
756.573	4907.65
756.887	5189.04
757.201	4947.33
757.515	4199.29
757.828	3700.92
758.142	3669.64
758.455	4209.29
758.769	4631.3
759.082	4928.03
759.396	5027.44
759.709	5097.3
760.022	5105.6
760.335	4615.42
760.648	4012.55
760.962	3523.95
761.275	3112.17
761.587	3128.61
761.9	3055.45
762.213	3228.24
762.526	3442.42
762.839	3484.42
763.151	3727.02
763.464	4141.15
763.776	4780.19
764.089	4954.57
764.401	4643.13
764.714	4141.15
765.026	3665.28
765.338	3202.25
765.65	2771.2
765.962	2532.57
766.275	2326.69
766.587	2256.37
766.898	2430.11
767.21	2778.63
767.522	3183.64
767.834	3489.33
768.146	3417.32
768.457	3124.5
768.769	2776.15
769.08	2748.08
769.392	2953.67
769.703	3245.47
770.015	3535.4
770.326	3549.3
770.637	3304.53
770.948	2922.92
771.26	2500.27
771.571	2449.46
771.882	2548.3
772.193	2528.71
772.504	2422.1
772.814	2313.13
773.125	2210.11
773.436	2123.31
773.747	1974.45
774.057	1902.97
774.368	1865.67
774.678	1772.91
774.989	1694.26
775.299	1643.18
775.609	1652.67
775.919	1639.83
776.23	1642.34
776.54	1670.82
776.85	1661.32
777.16	1714.07
777.47	1902.97
777.78	2146.62
778.089	2315.62
778.399	2322.54
778.709	2210.38
779.019	1938.3
779.328	1711.56
779.638	1728.85
779.947	2076.96
780.257	2477.08
780.566	2680.63
780.875	2564.02
781.185	2290.71
781.494	2256.65
781.803	2148.28
782.112	2044.75
782.421	2114.43
782.73	2154.38
783.039	2114.99
783.348	1871.52
783.656	1632.29
783.965	1604.91
784.274	1697.05
784.582	1800.5
784.891	1825.85
785.199	1769.84
785.508	1747.54
785.816	1677.24
786.124	1713.23
786.432	1912.99
786.741	2052.25
787.049	2075.85
787.357	2034.75
787.665	2031.42
787.973	1998.63
788.281	1910.48
788.588	1697.61
788.896	1515.46
789.204	1443.25
789.511	1423.37
789.819	1362.01
790.126	1367.34
790.434	1349.4
790.741	1353.88
791.049	1369.58
791.356	1291.34
791.663	1216.39
791.97	1236.89
792.277	1259.63
792.584	1400.12
792.891	1740.57
793.198	2049.2
793.505	2121.65
793.812	1989.46
794.119	1894.07
794.425	1809.69
794.732	1671.65
795.038	1373.78
795.345	1164.98
795.651	1077.8
795.958	1085.39
796.264	1194.2
796.57	1333.13
796.876	1389.48
797.183	1273.66
797.489	1200.94
797.795	1178.18
798.101	1186.33
798.406	1164.69
798.712	1130.68
799.018	1069.35
799.324	1081.17
799.629	1032.48
799.935	1015.58
800.24	1026.28
800.546	1009.95
800.851	967.12
801.157	897.2
801.462	893.53
801.767	913.27
802.072	929.91
802.377	1028.25
802.682	1028.25
802.987	1012.76
803.292	931.89
803.597	912.71
803.902	929.63
804.207	927.94
804.511	973.6
804.816	1055.84
805.12	1225.1
805.425	1364.81
805.729	1353.32
806.034	1266.09
806.338	1168.35
806.642	1063.72
806.946	1064.29
807.251	1130.4
807.555	1149.52
807.859	1121.4
808.162	1068.79
808.466	1036.7
808.77	975.01
809.074	924.27
809.378	886.48
809.681	881.96
809.985	910.74
810.288	901.14
810.592	859.67
810.895	800.65
811.198	784.83
811.502	768.44
811.805	752.05
812.108	769.57
812.411	812.8
812.714	970.5
813.017	1045.43
813.32	1022.62
813.623	989.66
813.926	857.41
814.228	804.89
814.531	743.85
814.833	735.94
815.136	731.41
815.438	766.18
815.741	779.46
816.043	796.42
816.345	815.34
816.648	814.21
816.95	775.23
817.252	752.9
817.554	749.79
817.856	716.43
818.158	698.61
818.46	693.23
818.761	696.06
819.063	731.41
819.365	723.21
819.666	796.7
819.968	885.35
820.269	875.19
820.571	833.13
820.872	771.83
821.173	741.03
821.475	716.43
821.776	689.84
822.077	700.87
822.378	713.03
822.679	700.02
822.98	664.94
823.281	668.05
823.581	668.61
823.882	682.2
824.183	667.2
824.483	689.84
824.784	722.65
825.084	756.01
825.385	726.04
825.685	688.7
825.985	717.56
826.286	711.33
826.586	722.36
826.886	707.37
827.186	696.91
827.486	671.16
827.786	673.14
828.086	652.76
828.386	684.18
828.685	681.35
828.985	692.1
829.285	652.48
829.584	621.05
829.884	603.5
830.183	607.46
830.482	606.33
830.782	570.06
831.081	532.65
831.38	537.75
831.679	566.38
831.978	610.58
832.277	593.01
832.576	611.71
832.875	582.81
833.174	598.96
833.472	617.94
833.771	630.68
834.07	656.73
834.368	606.89
834.667	603.78
834.965	581.11
835.263	578
835.562	590.46
835.86	573.18
836.158	590.46
836.456	568.93
836.754	530.38
837.052	542
837.35	554.47
837.648	522.15
837.946	522.15
838.243	525.84
838.541	535.48
838.839	569.5
839.136	585.08
839.434	562.41
839.731	581.4
840.028	547.1
840.326	546.82
840.623	562.41
840.92	522.44
841.217	529.81
841.514	509.39
841.811	524.99
842.108	502.58
842.405	507.41
842.701	514.21
842.998	506.27
843.295	525.84
843.591	502.02
843.888	511.66
844.184	533.21
844.481	534.06
844.777	514.5
845.073	517.9
845.369	531.51
845.665	520.74
845.962	516.2
846.258	529.53
846.553	514.21
846.849	494.07
847.145	519.6
847.441	541.72
847.737	515.35
848.032	514.5
848.328	505.42
848.623	510.24
848.919	479.89
849.214	517.62
849.509	505.42
849.805	519.03
850.1	492.94
850.395	491.24
850.69	489.25
850.985	473.08
851.28	510.24
851.575	495.49
851.869	503.15
852.164	542.57
852.459	547.67
852.753	565.53
853.048	604.06
853.342	599.25
853.637	601.23
853.931	619.36
854.225	637.48
854.52	600.38
854.814	607.74
855.108	568.08
855.402	547.1
855.696	564.39
855.99	548.52
856.283	547.67
856.577	559.29
856.871	543.7
857.164	519.6
857.458	522.15
857.751	558.16
858.045	498.9
858.338	522.15
858.632	511.94
858.925	519.32
859.218	527.26
859.511	501.45
859.804	508.54
860.097	511.94
860.39	526.12
860.683	510.53
860.976	534.91
861.268	528.11
861.561	486.13
861.854	490.95
862.146	485.56
862.439	500.88
862.731	511.94
863.023	518.75
863.316	491.24
863.608	508.82
863.9	503.15
864.192	525.27
864.484	499.18
864.776	483.01
865.068	508.82
865.36	510.81
865.651	497.76
865.943	496.91
866.235	491.52
866.526	506.27
866.818	490.1
867.109	486.13
867.4	491.8
867.692	490.67
867.983	501.17
868.274	496.34
868.565	483.01
868.856	488.68
869.147	498.9
869.438	492.94
869.729	472.23
870.02	491.8
870.31	506.56
870.601	507.97
870.892	484.71
871.182	488.4
871.473	499.46
871.763	478.75
872.053	502.87
872.343	497.19
872.634	471.09
872.924	492.66
873.214	492.66
873.504	484.43
873.794	467.97
874.084	493.22
874.373	492.94
874.663	467.69
874.953	484.43
875.242	493.22
875.532	452.64
875.821	482.16
876.111	500.6
876.4	478.75
876.689	515.35
876.978	505.7
877.268	485
877.557	480.17
877.846	491.52
878.134	484.43
878.423	484.43
878.712	484.43
