Data from FLMS007011_11-27-58-423.txt Node
Date: Thu Apr 21 11:27:58 MDT 2016
User: lab_user
Spectrometer: FLMS00701
Autoset integration time: false
Trigger mode: 0
Integration Time (sec): 5.000000E-3
Scans to average: 10
Electric dark correction enabled: true
Nonlinearity correction enabled: true
Boxcar width: 0
XAxis mode: Wavelengths
Stop averaging: false
Number of Pixels in Spectrum: 2048
>>>>>Begin Spectral Data<<<<<
178.41	32.26
178.791	32.26
179.172	32.26
179.553	-48.6
179.934	-64.04
180.316	-67.47
180.697	-51.46
181.078	-36.88
181.459	-75.48
181.84	-47.74
182.221	-59.18
182.602	-13.73
182.983	9.13
183.364	26.26
183.744	53.39
184.125	66.23
184.506	90.2
184.887	122.15
185.268	148.96
185.648	163.21
186.029	176.6
186.41	221.33
186.791	217.91
187.171	281.39
187.552	430.62
187.932	461.85
188.313	474.34
188.694	512.35
189.074	560.84
189.455	549.21
189.835	564.8
190.216	595.69
190.596	625.99
190.977	644.68
191.357	664.78
191.737	653.46
192.118	691.94
192.498	724.47
192.878	706.93
193.258	766.59
193.639	781
194.019	787.22
194.399	798.24
194.779	810.95
195.159	845.96
195.54	847.65
195.92	854.43
196.3	864.03
196.68	872.21
197.06	905.78
197.44	924.68
197.82	972.32
198.2	943.85
198.58	963.58
198.959	1019.93
199.339	977.96
199.719	1029.79
200.099	1044.71
200.479	1097.05
200.858	1077.36
201.238	1085.8
201.618	1119.27
201.998	1190.67
202.377	1130.52
202.757	1216.52
203.136	1240.67
203.516	1210.34
203.896	1272.95
204.275	1287.26
204.655	1325.97
205.034	1339.15
205.414	1383.72
205.793	1354.29
206.172	1450.66
206.552	1480.89
206.931	1499.08
207.31	1544.67
207.69	1590.51
208.069	1581.01
208.448	1626.54
208.827	1680.43
209.207	1738.46
209.586	1736.51
209.965	1838.79
210.344	1855.5
210.723	1902.82
211.102	1940.37
211.481	1995.42
211.86	2037.1
212.239	2104.57
212.618	2119.27
212.997	2203.02
213.376	2276.71
213.755	2321.56
214.134	2341.76
214.513	2483.55
214.891	2519.72
215.27	2541.25
215.649	2634.19
216.028	2756.46
216.406	2817.25
216.785	2886.52
217.164	2942.27
217.542	3008.13
217.921	3170.35
218.3	3233.29
218.678	3364.48
219.057	3427.53
219.435	3540.43
219.814	3636.83
220.192	3703.76
220.57	3832.02
220.949	3974.46
221.327	4087.69
221.705	4224.28
222.084	4390.87
222.462	4553.91
222.84	4588.64
223.218	4807.16
223.597	4950.67
223.975	5146.11
224.353	5297.62
224.731	5493.11
225.109	5651.5
225.487	5849.44
225.865	6066.03
226.243	6221.09
226.621	6386.72
226.999	6638.73
227.377	6884.07
227.755	7037.34
228.133	7292.46
228.511	7477.27
228.889	7809.49
229.266	7970.03
229.644	8197.56
230.022	8496.88
230.4	8626.22
230.777	8855.33
231.155	9102.82
231.533	9384.77
231.91	9676.87
232.288	9887.72
232.665	10199.68
233.043	10400.3
233.42	10630.95
233.798	10857.42
234.175	11133.81
234.553	11397.81
234.93	11622.67
235.307	11889.93
235.685	12091.67
236.062	12340.06
236.439	12581.32
236.816	12842.87
237.194	13083.49
237.571	13458.91
237.948	13673.53
238.325	13877.94
238.702	14110.14
239.079	14401
239.456	14545.92
239.833	14806.13
240.21	15106.63
240.587	15316.81
240.964	15715.35
241.341	15831.03
241.718	16147.08
242.095	16254.68
242.472	16574.78
242.849	16705.51
243.225	17027.18
243.602	17192.12
243.979	17388.37
244.356	17684.06
244.732	17889.22
245.109	18202.83
245.486	18415.17
245.862	18619.53
246.239	18808.04
246.615	19030.98
246.992	19267.86
247.368	19421.97
247.745	19671.51
248.121	19949.25
248.497	20096.32
248.874	20383.99
249.25	20536.89
249.626	20819.76
250.003	20973.82
250.379	21343.28
250.755	21498.99
251.131	21733.76
251.507	21823.62
251.884	22186.73
252.26	22303.09
252.636	22619.48
253.012	22632.24
253.388	22929.45
253.764	23184.18
254.14	23220.99
254.516	23502.69
254.892	23550.79
255.268	23721.82
255.643	23900.2
256.019	24090.37
256.395	24075.89
256.771	24557.31
257.147	24507.74
257.522	24789.19
257.898	24747.72
258.274	24807.84
258.649	24951.14
259.025	25066.23
259.4	25238.25
259.776	25421.81
260.151	25396.05
260.527	25581.09
260.902	25679.01
261.278	25729.32
261.653	25862.11
262.028	25826.03
262.404	26070.98
262.779	26035.39
263.154	26330.93
263.53	26428.39
263.905	26389.85
264.28	26344.43
264.655	26463.74
265.03	26332.9
265.405	26582.07
265.781	26622.34
266.156	26770.38
266.531	26805
266.906	26780.69
267.281	26963.37
267.655	26756.63
268.03	26566.11
268.405	26822.92
268.78	26824.15
269.155	26916.23
269.53	26953.55
269.904	26920.4
270.279	26963.62
270.654	27160.31
271.029	26892.66
271.403	27115.86
271.778	27191.25
272.152	27003.15
272.527	26977.86
272.901	27307.66
273.276	27272.29
273.65	27252.65
274.025	27180.45
274.399	27156.87
274.774	27341.06
275.148	27414
275.522	27366.11
275.897	27399.76
276.271	27242.82
276.645	27519.37
277.019	27573.16
277.393	27771.87
277.768	27440.28
278.142	27554.73
278.516	27439.54
278.89	27550.31
279.264	27463.12
279.638	27652.49
280.012	27709.48
280.386	27460.91
280.76	27533.61
281.133	27634.81
281.507	27586.67
281.881	27726.92
282.255	27706.04
282.629	27521.82
283.002	27447.16
283.376	27553.02
283.75	27432.91
284.123	27694.5
284.497	27587.89
284.87	27571.93
285.244	27568.49
285.618	27526.73
285.991	27298.33
286.364	27249.95
286.738	27309.38
287.111	27456.49
287.485	27145.33
287.858	27170.87
288.231	27162.77
288.605	27071.17
288.978	27092.04
289.351	26891.18
289.724	26795.43
290.097	26895.36
290.47	26747.3
290.843	26748.28
291.217	26584.04
291.59	26304.67
291.963	26302.95
292.336	26321.85
292.708	26146.34
293.081	26042.75
293.454	26232.5
293.827	26114.67
294.2	25805.16
294.573	25803.45
294.945	25632.14
295.318	25683.43
295.691	25610.78
296.064	25600.97
296.436	25376.66
296.809	25539.61
297.181	25317.52
297.554	25395.8
297.926	25337.15
298.299	25250.28
298.671	25436.05
299.044	25211.75
299.416	25179.36
299.788	25157.52
300.161	24957.52
300.533	25064.51
300.905	25361.2
301.278	25235.8
301.65	25317.76
302.022	25169.79
302.394	24938.38
302.766	25055.68
303.138	24958.01
303.51	25084.63
303.882	25055.92
304.254	25000.46
304.626	25194.08
304.998	25271.14
305.37	24924.4
305.742	25031.14
306.114	25109.42
306.485	25245.12
306.857	25196.04
307.229	25043.65
307.601	25084.88
307.972	24904.76
308.344	25056.17
308.716	24986.48
309.087	24924.15
309.459	24871.64
309.83	24898.14
310.202	24846.61
310.573	24953.11
310.945	24985.5
311.316	24782.56
311.687	24957.52
312.059	24813.97
312.43	24865.5
312.801	24883.91
313.172	24783.05
313.544	24613.99
313.915	24794.1
314.286	24792.38
314.657	24800.72
315.028	24710.18
315.399	24745.51
315.77	24866.98
316.141	24587.73
316.512	24628.47
316.883	24461.61
317.254	24653.99
317.625	24392.17
317.996	24608.1
318.366	24449.1
318.737	24407.88
319.108	24381.87
319.478	24368.86
319.849	24236.61
320.22	24282.49
320.59	24215.5
320.961	24121.28
321.331	24287.15
321.702	24070.98
322.072	23910.26
322.443	23880.33
322.813	23932.59
323.184	23861.19
323.554	23803.53
323.924	23712.98
324.295	23683.78
324.665	23579.74
325.035	23638.39
325.405	23343.93
325.775	23257.8
326.145	23153.75
326.515	23110.07
326.886	22904.17
327.256	22790.79
327.626	22571.62
327.995	22529.16
328.365	22315.85
328.735	22313.89
329.105	21805.45
329.475	21501.2
329.845	21030.57
330.215	20870.13
330.584	21065.7
330.954	22120.69
331.324	23604.04
331.693	24610.8
332.063	25369.54
332.432	25685.15
332.802	24935.44
333.171	24230.72
333.541	23192.52
333.91	23134.36
334.28	22878.4
334.649	22865.64
335.018	22652.61
335.388	22565.24
335.757	22588.55
336.126	22340.64
336.495	22508.78
336.865	22259.15
337.234	22198.27
337.603	22081.91
337.972	22016.11
338.341	22066.19
338.71	22153.35
339.079	21881.32
339.448	22068.16
339.817	21909.31
340.186	22056.62
340.554	21881.32
340.923	21951.54
341.292	21723.2
341.661	21754.87
342.029	21869.78
342.398	21773.78
342.767	21650.76
343.135	21759.54
343.504	21563.34
343.872	21620.06
344.241	21627.43
344.609	21558.91
344.978	21572.67
345.346	21606.56
345.715	21478.12
346.083	21447.42
346.451	21390.44
346.82	21332.23
347.188	21383.81
347.556	21222.43
347.924	21302.02
348.292	21040.65
348.66	21133.75
349.028	21211.62
349.396	20978.73
349.764	21040.89
350.132	20863.5
350.5	20889.79
350.868	20844.09
351.236	20871.36
351.604	20739.65
351.972	20821.24
352.34	20560.98
352.707	20596.86
353.075	20643.31
353.443	20454.55
353.81	20350.31
354.178	20406.12
354.545	20545.74
354.913	20456.27
355.28	20432.91
355.648	20471.02
356.015	20298.69
356.383	20289.34
356.75	20135.42
357.117	20284.18
357.485	20252.71
357.852	20121.4
358.219	20108.37
358.586	19997.95
358.954	20023.28
359.321	19979.75
359.688	19950.97
360.055	19815.68
360.422	19932.77
360.789	19765.98
361.156	19801.66
361.523	19600.64
361.89	19610.97
362.256	19714.81
362.623	19601.13
362.99	19616.39
363.357	19485.96
363.724	19460.61
364.09	19484.97
364.457	19441.41
364.823	19597.69
365.19	19405.72
365.557	19580.46
365.923	19505.16
366.29	19370.27
366.656	19475.38
367.022	19613.44
367.389	19337.29
367.755	19142.29
368.121	19210.99
368.488	19260.48
368.854	19086.39
369.22	18865.94
369.586	18842.53
369.952	18643.93
370.318	18548.54
370.684	18576.39
371.051	18534.49
371.416	18443.27
371.782	18441.55
372.148	18392.48
372.514	18269.92
372.88	18317.27
373.246	18217.38
373.612	18285.21
373.977	18389.03
374.343	18415.66
374.709	18527.34
375.074	18291.38
375.44	18243.04
375.806	18145.6
376.171	18223.06
376.537	18200.61
376.902	18130.31
377.268	18419.85
377.633	18485.43
377.998	18605.97
378.364	18811.49
378.729	18810.51
379.094	18614.35
379.459	18178.66
379.825	18288.17
380.19	18205.55
380.555	17893.41
380.92	17637.38
381.285	17527.22
381.65	17725.3
382.015	17722.58
382.38	17666.53
382.745	17420
383.11	17381.45
383.474	17454.1
383.839	17388.37
384.204	17308.55
384.569	17232.66
384.933	17145.14
385.298	17070.96
385.663	17085.05
386.027	17167.15
386.392	17392.08
386.756	17406.9
387.121	17509.93
387.485	17673.19
387.849	17905.26
388.214	17610.71
388.578	17261.34
388.942	16972.27
389.307	17117.94
389.671	17016.3
390.035	17191.87
390.399	17126.84
390.763	17327.58
391.127	17584.78
391.492	18048.15
391.856	18432.42
392.219	18696.42
392.583	18493.07
392.947	17890.21
393.311	17488.44
393.675	17314.48
394.039	17190.88
394.403	17121.16
394.766	17065.02
395.13	16857.97
395.494	16883.45
395.857	17025.45
396.221	17143.16
396.584	17442.48
396.948	17784.55
397.311	18375.71
397.675	18588.96
398.038	18571.46
398.401	17975.11
398.765	17524.51
399.128	17078.87
399.491	16774.57
399.854	16706.74
400.218	16672.09
400.581	16546.79
400.944	16370.91
401.307	15949.4
401.67	16086.08
402.033	15961.56
402.396	15963.3
402.759	15967.51
403.122	16019.86
403.485	16134.69
403.847	16281.2
404.21	16498.5
404.573	16700.56
404.936	16736.94
405.298	16367.44
405.661	15943.95
406.023	15570.56
406.386	15456.26
406.749	15237.98
407.111	15261.86
407.473	15580.49
407.836	15887.12
408.198	15933.03
408.561	15882.9
408.923	15879.43
409.285	15697.22
409.647	15596.14
410.009	15264.59
410.372	15223.06
410.734	15090.71
411.096	15167.09
411.458	15166.1
411.82	15433.65
412.182	15664.69
412.544	15522.86
412.906	15550.68
413.267	15496.27
413.629	15285.48
413.991	15058.85
414.353	15068.81
414.714	14799.9
415.076	14785.45
415.438	14875.62
415.799	14882.84
416.161	14699.74
416.522	14477.34
416.884	14551.41
417.245	14516.25
417.607	14433.68
417.968	14446.66
418.329	14602.52
418.691	14585.82
419.052	14633.44
419.413	14789.69
419.774	14912.23
420.135	15481.11
420.497	15992.82
420.858	16610.93
421.219	16662.68
421.58	16127.74
421.941	15700.2
422.302	15163.61
422.662	15101.9
423.023	14760.54
423.384	14698.74
423.745	14885.33
424.106	14913.97
424.466	15067.81
424.827	14705.22
425.187	14291.19
425.548	14051.67
425.909	13884.94
426.269	14028.43
426.63	14142.86
426.99	14571.36
427.35	14335.87
427.711	14401.5
428.071	14713.19
428.431	15246.94
428.792	16411.05
429.152	17357.23
429.512	17493.63
429.872	17165.66
430.232	16766.4
430.592	15852.13
430.952	14929.41
431.312	14328.88
431.672	13821.42
432.032	13826.92
432.392	14218.79
432.752	15698.96
433.111	16506.17
433.471	16155.51
433.831	14901.52
434.19	14868.15
434.55	14863.92
434.91	14440.17
435.269	14790.19
435.629	14969.74
435.988	15113.85
436.348	14703.97
436.707	14276.71
437.066	14308.16
437.426	14340.61
437.785	14641.16
438.144	14642.66
438.503	14373.55
438.862	14196.56
439.222	14058.92
439.581	13880.44
439.94	14184.32
440.299	15175.05
440.658	16037.47
441.017	16129.97
441.376	15854.36
441.734	15469.43
442.093	15388.16
442.452	15570.06
442.811	15851.88
443.169	15810.68
443.528	15307.86
443.887	15152.91
444.245	15097.67
444.604	14789.94
444.962	14558.89
445.321	14479.09
445.679	14743.35
446.038	14841
446.396	14465.37
446.754	14193.81
447.112	13989.69
447.471	13867.44
447.829	13666.02
448.187	13800.65
448.545	13905.7
448.903	13770.88
449.261	13677.29
449.619	13518.54
449.977	13390.75
450.335	13057.88
450.693	13030.02
451.051	13050.35
451.409	12953.42
451.766	12874.03
452.124	12612.02
452.482	12262.43
452.839	12038.92
453.197	11956.61
453.555	11864.66
453.912	11841.66
454.27	12226.12
454.627	12637.68
454.984	12568.98
455.342	12199.14
455.699	11919.74
456.056	12015.95
456.414	12343.08
456.771	12676.93
457.128	12785.06
457.485	12929.31
457.842	12737.54
458.199	12733.26
458.556	13115.37
458.913	12986.57
459.27	13162.04
459.627	12857.95
459.984	12920.51
460.341	13107.84
460.697	12742.06
461.054	12089.65
461.411	11524.97
461.767	11255.6
462.124	11324.82
462.481	11638.36
462.837	11917.46
463.194	12490.69
463.55	12308.05
463.907	12925.54
464.263	13359.42
464.619	13868.94
464.976	14301.42
465.332	14327.13
465.688	13604.94
466.044	12537.77
466.4	12236.71
466.756	11902.56
467.112	12061.64
467.468	12038.42
467.824	11927.82
468.18	11574.08
468.536	11412.76
468.892	11154.37
469.248	11017.78
469.604	10873.69
469.959	10898.35
470.315	10845.98
470.671	10876.23
471.026	11010.41
471.382	11236.58
471.737	11552.82
472.093	11749.65
472.448	12309.06
472.804	12545.58
473.159	12738.29
473.514	12720.19
473.87	12893.13
474.225	13720.59
474.58	14262.73
474.935	14220.03
475.29	13776.39
475.645	13735.85
476	13667.03
476.355	13449.39
476.71	13327.83
477.065	14043.93
477.42	14581.08
477.775	14643.91
478.13	14315.15
478.485	14564.63
478.839	14896.79
479.194	15591.42
479.549	16097.49
479.903	16074.18
480.258	15671.89
480.612	16139.15
480.967	16954.95
481.321	16974.74
481.675	16270.29
482.03	15651.53
482.384	15543.48
482.738	15691.76
483.093	16008.7
483.447	16603.25
483.801	17659.12
484.155	18242.05
484.509	21877.89
484.863	49345.95
485.217	62050.04
485.571	61364.79
485.925	39114.9
486.279	28298.13
486.632	23936.03
486.986	20544.76
487.34	17856.39
487.694	16724.57
488.047	16460.6
488.401	16556.2
488.754	16236.58
489.108	15732.73
489.461	15557.39
489.815	15234.75
490.168	15579
490.522	15580.49
490.875	15596.14
491.228	15377.47
491.581	15673.88
491.935	15525.09
492.288	15459
492.641	15774.93
492.994	15581.49
493.347	16070.46
493.7	16074.67
494.053	15963.79
494.406	15584.97
494.759	14810.36
495.111	15741.67
495.464	17075.16
495.817	17957.34
496.169	17074.17
496.522	15638.12
496.875	14536.95
497.227	14382.79
497.58	14377.79
497.932	14644.16
498.285	14749.82
498.637	15549.69
498.989	16026.56
499.342	15876.95
499.694	15163.86
500.046	14887.57
500.398	15508.2
500.751	16033.5
501.103	15940.72
501.455	15931.04
501.807	15946.92
502.159	15919.63
502.511	15953.62
502.862	15889.6
503.214	15434.14
503.566	14891.56
503.918	14486.32
504.27	14525.97
504.621	14572.85
504.973	14343.11
505.324	14562.38
505.676	15079.26
506.027	14986.17
506.379	14049.68
506.73	13494.49
507.082	13747.11
507.433	14159.35
507.784	14568.37
508.136	14034.68
508.487	13770.13
508.838	13423.58
509.189	13678.04
509.54	13864.18
509.891	13625.47
510.242	13551.85
510.593	13309.78
510.944	13220
511.295	12748.35
511.646	12412.12
511.996	12630.89
512.347	12848.4
512.698	12872.27
513.049	12750.61
513.399	12579.3
513.75	12534.75
514.1	12180.48
514.451	11752.69
514.801	11687.19
515.152	11921.25
515.502	12237.22
515.852	12469.29
516.202	12513.86
516.553	12255.12
516.903	11785.05
517.253	11475.33
517.603	11418.08
517.953	11567.5
518.303	12038.16
518.653	12237.47
519.003	12107.32
519.353	11340.54
519.703	10807.06
520.052	10687.72
520.402	10856.91
520.752	11087.36
521.102	10849.54
521.451	10621.52
521.801	10680.6
522.15	10933.17
522.5	11058.16
522.849	11010.41
523.199	11309.86
523.548	11458.87
523.897	11275.13
524.246	10941.3
524.596	10605.73
524.945	10677.29
525.294	10771.7
525.643	10789.51
525.992	10833.26
526.341	10932.92
526.69	10808.34
527.039	10587.39
527.388	10338.31
527.737	11001.01
528.086	11754.96
528.434	12375.84
528.783	11965.45
529.132	11437.59
529.48	11139.14
529.829	10984.5
530.177	10798.42
530.526	10628.91
530.874	10889.71
531.223	10879.54
531.571	10766.87
531.919	10853.1
532.268	11552.56
532.616	12320.91
532.964	12691.01
533.312	12674.66
533.66	12643.22
534.008	12740.05
534.356	12693.28
534.704	12598.18
535.052	12135.83
535.4	11654.05
535.748	11053.59
536.095	10459.46
536.443	10562.94
536.791	10836.82
537.139	11335.72
537.486	11965.2
537.834	12137.09
538.181	12233.69
538.529	12171.14
538.876	12200.9
539.223	11854.3
539.571	11454.06
539.918	11546.49
540.265	11801.23
540.613	12249.82
540.96	12025.79
541.307	11922.51
541.654	11957.62
542.001	12050.79
542.348	11869.21
542.695	11812.6
543.042	12203.17
543.388	12368.28
543.735	12638.18
544.082	12675.17
544.429	12611.01
544.775	12010.14
545.122	11408.71
545.469	10952.74
545.815	10987.8
546.162	11190.91
546.508	11633.55
546.854	12505.8
547.201	13477.71
547.547	13831.42
547.893	13334.6
548.24	12133.3
548.586	10935.46
548.932	10634.26
549.278	10501.27
549.624	10761.78
549.97	10473.99
550.316	10095.43
550.662	9905.64
551.008	10794.09
551.353	12144.66
551.699	12854.18
552.045	12353.42
552.391	11717.79
552.736	11490.28
553.082	11457.86
553.427	11198.27
553.773	10487.76
554.118	10309.21
554.464	10834.02
554.809	11694.77
555.154	12172.15
555.5	12183.75
555.845	11365.88
556.19	10721.32
556.535	10195.6
556.88	10584.08
557.225	10619.74
557.57	10216.79
557.915	9801.68
558.26	9535.26
558.605	9589.15
558.95	9858.53
559.295	10951.21
559.639	11785.05
559.984	12814.47
560.329	12985.57
560.673	12977.03
561.018	12277.55
561.362	11609.01
561.707	11144.22
562.051	11324.82
562.395	11428.73
562.74	12070.47
563.084	12315.62
563.428	12944.88
563.772	12753.38
564.117	13056.88
564.461	13087.51
564.805	12741.81
565.149	12993.1
565.493	12966.98
565.836	13351.65
566.18	13696.81
566.524	15689.28
566.868	16732.24
567.212	17385.65
567.555	17737.15
567.899	19534.69
568.242	21033.52
568.586	24006.2
568.929	27248.47
569.273	30777.74
569.616	31013.06
569.96	32110.19
570.303	34215.37
570.646	35154.39
570.989	37179.29
571.333	37084.31
571.676	34418.96
572.019	29240.01
572.362	32273.79
572.705	37222.59
573.048	41513.92
573.391	44452.06
573.733	45823.46
574.076	46871.37
574.419	44929.07
574.762	40291.6
575.104	35602.43
575.447	35473.98
575.789	39573.14
576.132	45238.64
576.474	45566.18
576.817	53352.24
577.159	60053.02
577.501	60293.23
577.844	53315.28
578.186	42442.09
578.528	38319.81
578.87	38121.71
579.212	39901.37
579.554	43357.42
579.896	42605.78
580.238	46682.74
580.58	61593.62
580.922	68670.06
581.264	68734.13
581.606	63109.5
581.947	56302.45
582.289	45840.42
582.631	37120.92
582.972	32194.7
583.314	32567.29
583.655	34187.98
583.997	40605.8
584.338	47517.75
584.679	52101.58
585.021	50481.88
585.362	43670.84
585.703	37816.71
586.044	36492.07
586.385	40699.23
586.726	44836.65
587.067	42398.43
587.408	37891.71
587.749	34763.3
588.09	31645.87
588.431	28625.96
588.772	25867.5
589.113	26777.5
589.453	27107.02
589.794	25695.46
590.134	23167.74
590.475	21939.27
590.815	21963.33
591.156	22304.81
591.496	22924.05
591.837	31021.92
592.177	37799.63
592.517	42074.55
592.857	38366.87
593.198	34204.02
593.538	28098.86
593.878	25917.82
594.218	27272.54
594.558	29850.38
594.898	28447.04
595.237	25405.13
595.577	22403.73
595.917	19982.7
596.257	21601.64
596.596	22600.33
596.936	23861.93
597.276	22021.76
597.615	22381.64
597.955	28502.58
598.294	33074.34
598.633	33192.2
598.973	30952.75
599.312	30872.01
599.651	30755.83
599.991	29306.4
600.33	28624.97
600.669	26868.59
601.008	25264.75
601.347	23431.29
601.686	24677.05
602.025	24466.03
602.364	26810.4
602.702	27711.2
603.041	27650.28
603.38	25394.82
603.719	23372.89
604.057	21722.71
604.396	21849.4
604.734	23237.68
605.073	27639.97
605.411	27293.17
605.75	25778.41
606.088	23090.44
606.426	24097.24
606.764	24743.06
607.103	23756.17
607.441	21811.84
607.779	20833.77
608.117	21162.99
608.455	19511.31
608.793	18737.57
609.131	21465.84
609.469	22784.65
609.806	22455.28
610.144	19432.06
610.482	18751.86
610.819	19127.51
611.157	18712.19
611.495	17435.81
611.832	17297.67
612.17	17561.56
612.507	17942.53
612.844	17592.43
613.182	17513.88
613.519	17606.27
613.856	17864.78
614.193	18070.11
614.53	18951.17
614.867	19203.11
615.205	17366.62
615.541	16286.65
615.878	14797.91
616.215	15117.08
616.552	14836.52
616.889	15464.96
617.226	15929.31
617.562	15112.85
617.899	13406.04
618.235	12110.85
618.572	11162.24
618.908	11860.36
619.245	13013.95
619.581	13466.43
619.918	11799.2
620.254	9200.13
620.59	8733.47
620.926	9916.39
621.262	11140.41
621.599	11190.15
621.935	11358.03
622.271	12263.94
622.606	12883.08
622.942	12431.77
623.278	11524.46
623.614	12612.77
623.95	12908.2
624.285	12478.1
624.621	11256.11
624.957	10586.88
625.292	9999.8
625.628	9380.65
625.963	9125.74
626.299	9550.66
626.634	9821.66
626.969	9626.09
627.304	8239.33
627.64	7173.62
627.975	7231.75
628.31	8059.69
628.645	8677.92
628.98	8214.43
629.315	7982.51
629.65	7829.8
629.985	7865.19
630.319	7264.46
630.654	7027.37
630.989	7117.03
631.323	6905.86
631.658	6455.58
631.993	5896.93
632.327	5795.54
632.662	5851.83
632.996	6085.89
633.33	6233.51
633.665	5925.05
633.999	5494.98
634.333	5554.1
634.667	5485.39
635.001	5784.39
635.335	6184.33
635.669	6698.74
636.003	6590.54
636.337	6023.65
636.671	5502.44
637.005	5107.05
637.339	5110.8
637.672	5475.26
638.006	5826.34
638.339	5612.66
638.673	5370.48
639.006	5003.72
639.34	4985.5
639.673	4873.18
640.007	4911.53
640.34	4705.63
640.673	4637.87
641.006	4568.18
641.34	4420.81
641.673	4199.41
642.006	4095.27
642.339	4266.16
642.672	4297.76
643.004	4170.21
643.337	4015.11
643.67	3928.09
644.003	4050.05
644.336	4072.25
644.668	3993.7
645.001	3969.03
645.333	3862.97
645.666	3626.49
645.998	3472.82
646.331	3417.71
646.663	3446.09
646.995	3860.26
647.327	4486.85
647.66	5131.93
647.992	5256.76
648.324	5358.2
648.656	5210.8
648.988	4839.1
649.32	4335.83
649.652	3875.46
649.983	3715.45
650.315	3685.81
650.647	3769.28
650.979	4126.12
651.31	4496.55
651.642	4724.44
651.973	4759.09
652.305	4741.1
652.636	4670.95
652.967	4446.42
653.299	4266.43
653.63	4273.19
653.961	4921.72
654.292	7470.48
654.623	50394.62
654.955	68734.13
655.286	68734.13
655.616	68734.13
655.947	68734.13
656.278	68734.13
656.609	68233.45
656.94	38292.07
657.27	27554.24
657.601	20610.38
657.932	14455.14
658.262	9709.94
658.593	6633.72
658.923	4765.27
659.254	3831.21
659.584	3372.39
659.914	3057.21
660.244	2931.28
660.575	2941.17
660.905	2944.46
661.235	3003.19
661.565	3023.76
661.895	3046.25
662.225	2959.83
662.555	2940.34
662.884	2898.05
663.214	3052.83
663.544	3156.94
663.873	3192.79
664.203	3296.17
664.533	3456.73
664.862	3487.54
665.192	3286.88
665.521	3027.33
665.85	2796.08
666.18	2639.15
666.509	2623.71
666.838	2734.44
667.167	2806.53
667.496	2784.53
667.825	2708.29
668.154	2732.52
668.483	2770.77
668.812	2856.84
669.141	2946.93
669.47	3011.42
669.798	2992.22
670.127	2874.7
670.456	3156.94
670.784	3990.18
671.113	4787.83
671.441	5273.05
671.77	5177.39
672.098	4773.87
672.426	3966.87
672.755	3417.98
673.083	3321.04
673.411	3297.81
673.739	3222.89
674.067	2952.7
674.395	2930.73
674.723	2995.51
675.051	3186.5
675.379	3096.68
675.706	3111.2
676.034	2960.38
676.362	2864.26
676.689	3267.2
677.017	3832.57
677.344	4092.83
677.672	4000.75
677.999	3884.95
678.327	4006.71
678.654	4457.74
678.981	4696.49
679.308	4638.14
679.636	4335.02
679.963	3919.95
680.29	3734.49
680.617	3979.88
680.944	4109.88
681.271	3909.1
681.597	3448
681.924	3037.75
682.251	2997.98
682.578	3345.63
682.904	3789.92
683.231	4181.57
683.557	4282.64
683.884	4573.56
684.21	4808.23
684.536	5162.96
684.863	5332.32
685.189	5146.38
685.515	4701.6
685.841	4346.35
686.167	4274.54
686.493	4475.26
686.819	4439.68
687.145	4066.03
687.471	3542.33
687.797	3248.88
688.123	3265.28
688.448	3503.9
688.774	3721.98
689.1	3707.3
689.425	3351.91
689.751	3249.42
690.076	3551.6
690.402	4160.74
690.727	4390.87
691.052	4228.88
691.377	3944.63
691.703	3842.61
692.028	3703.76
692.353	3947.34
692.678	3951.95
693.003	3725.79
693.328	3210.31
693.652	2849.69
693.977	2921.95
694.302	3284.97
694.627	3517.53
694.951	3261.18
695.276	2747.93
695.6	2579.87
695.925	3299.18
696.249	4274
696.574	4779.77
696.898	4493.04
697.222	3956.02
697.546	3615.33
697.871	3519.71
698.195	3513.99
698.519	3319.13
698.843	3157.21
699.167	2912.89
699.491	2678.82
699.814	2615.17
700.138	2637.77
700.462	2531.04
700.786	2552.56
701.109	2693.14
701.433	2976.03
701.756	3135.85
702.08	3143.52
702.403	3021.29
702.726	2837.32
703.05	2682.95
703.373	2607.17
703.696	2608.27
704.019	2448.75
704.342	2264.81
704.665	2133.42
704.988	2066.54
705.311	2321
705.634	2847.22
705.957	3562.77
706.28	4100.41
706.602	4294.25
706.925	4130.18
707.247	3824.15
707.57	3518.9
707.892	3323.23
708.215	3069.82
708.537	2828.8
708.859	2827.98
709.182	2898.88
709.504	3010.05
709.826	3112.84
710.148	3075.3
710.47	2908.77
710.792	2750.41
711.114	2590.9
711.436	2445.71
711.758	2467.81
712.079	2526.07
712.401	2802.4
712.723	3035.83
713.044	3370.76
713.366	3522.44
713.687	3497.09
714.009	3228.36
714.33	3132.29
714.652	2955.44
714.973	2790.03
715.294	2528
715.615	2253.73
715.936	2124.55
716.257	2097.35
716.578	2108.73
716.899	2206.9
717.22	2507.57
717.541	2622.88
717.862	2673.86
718.182	2642.45
718.503	2706.09
718.824	2766.09
719.144	2621.23
719.465	2501.22
719.785	2598.9
720.105	2665.87
720.426	2699.75
720.746	2685.71
721.066	2597.52
721.386	2580.7
721.706	2422.78
722.026	2325.43
722.346	2291.11
722.666	2381.03
722.986	2499.29
723.306	2432.17
723.626	2323.5
723.946	2345.63
724.265	2608.27
724.585	2870.58
724.904	2950.5
725.224	2972.73
725.543	2932.93
725.863	2886.52
726.182	2718.75
726.501	2503.71
726.82	2574.35
727.14	2721.78
727.459	2885.14
727.778	2905.2
728.097	2889.54
728.416	2878
728.734	3139.96
729.053	3202.37
729.372	3191.15
729.691	3335.25
730.009	3696.69
730.328	3933.79
730.647	3950.6
730.965	3727.96
731.283	3454.54
731.602	3344.81
731.92	3437.9
732.238	3587.83
732.557	3736.93
732.875	3851.57
733.193	4345
733.511	4602.36
733.829	4364.97
734.147	3886.85
734.465	3523.53
734.782	3507.45
735.1	3702.4
735.418	3737.75
735.735	3759.49
736.053	3750.52
736.371	3725.24
736.688	3455.64
737.005	3084.9
737.323	2817.53
737.64	2839.25
737.957	3111.47
738.274	3681.73
738.592	3970.12
738.909	3798.35
739.226	3130.65
739.543	2732.52
739.86	2443.22
740.176	2316.3
740.493	2198.59
740.81	2136.2
741.127	2188.33
741.443	2390.71
741.76	2596.14
742.076	2593.11
742.393	2360.01
742.709	2105.95
743.025	2015.15
743.342	2047.65
743.658	2133.15
743.974	2221.04
744.29	2279.48
744.606	2188.33
744.922	2182.79
745.238	2205.8
745.554	2081.81
745.87	2038.21
746.186	2178.91
746.501	2383.8
746.817	2336.22
747.132	2055.43
747.448	1863.85
747.763	1827.65
748.079	2033.77
748.394	2416.7
748.71	2759.49
749.025	3116.13
749.34	3197.99
749.655	3121.61
749.97	2916.46
750.285	2800.75
750.6	2948.31
750.915	3111.2
751.23	3037.2
751.545	2839.25
751.859	2576.28
752.174	2532.14
752.489	2763.62
752.803	3080.78
753.118	3171.17
753.432	2989.47
753.747	2824.4
754.061	2909.04
754.375	3184.58
754.689	3399.97
755.004	3444.72
755.318	3613.97
755.632	3896.89
755.946	4145.06
756.26	4435.37
756.573	4974.52
756.887	5238.59
757.201	5109.73
757.515	4272.1
757.828	3701.31
758.142	3715.18
758.455	4237.25
758.769	4800.99
759.082	4981.75
759.396	5190.76
759.709	5301.89
760.022	5198.78
760.335	4794.54
760.648	4173.73
760.962	3594.09
761.275	3219.06
761.587	3155.84
761.9	3197.99
762.213	3330.33
762.526	3590.82
762.839	3649.62
763.151	3825.23
763.464	4191.3
763.776	4942.63
764.089	5161.35
764.401	4828.63
764.714	4307.21
765.026	3750.52
765.338	3389.32
765.65	2900.53
765.962	2624.54
766.275	2454.28
766.587	2399.83
766.898	2551.18
767.21	2916.73
767.522	3349.45
767.834	3632.48
768.146	3552.14
768.457	3251.61
768.769	2878.82
769.08	2847.49
769.392	3081.88
769.703	3408.43
770.015	3728.23
770.326	3755.96
770.637	3450.18
770.948	3042.96
771.26	2582.9
771.571	2580.7
771.882	2719.58
772.193	2715.17
772.504	2599.45
772.814	2434.38
773.125	2379.37
773.436	2222.7
773.747	2065.98
774.057	1990.7
774.368	1989.86
774.678	1888.62
774.989	1799.79
775.299	1697.45
775.609	1723.68
775.919	1764.67
776.23	1790.03
776.54	1753.24
776.85	1753.8
777.16	1769.97
777.47	2037.93
777.78	2255.11
778.089	2461.18
778.399	2513.37
778.709	2333.46
779.019	2068.76
779.328	1807.31
779.638	1858.56
779.947	2186.67
780.257	2620.68
780.566	2858.21
780.875	2747.11
781.185	2497.64
781.494	2416.7
781.803	2330.97
782.112	2209.68
782.421	2274.5
782.73	2378.54
783.039	2326.54
783.348	2034.32
783.656	1805.36
783.965	1722
784.274	1889.46
784.582	2019.32
784.891	2032.93
785.199	1951.78
785.508	1896.69
785.816	1783.62
786.124	1851.32
786.432	2077.37
786.741	2286.4
787.049	2274.22
787.357	2173.64
787.665	2236.55
787.973	2245.14
788.281	2089.86
788.588	1895.3
788.896	1664.24
789.204	1579.61
789.511	1567.87
789.819	1496.84
790.126	1508.03
790.434	1507.75
790.741	1524.81
791.049	1481.45
791.356	1446.18
791.663	1343.07
791.97	1356.25
792.277	1371.11
792.584	1553.33
792.891	1915.62
793.198	2294.43
793.505	2448.2
793.812	2264.81
794.119	2132.31
794.425	2070.42
794.732	1854.94
795.038	1576.81
795.345	1346.44
795.651	1179.15
795.958	1199.66
796.264	1324.85
796.57	1431.62
796.876	1526.49
797.183	1423.22
797.489	1322.6
797.795	1288.1
798.101	1309.14
798.406	1318.96
798.712	1265.65
799.018	1217.64
799.324	1193.76
799.629	1174.66
799.935	1191.51
800.24	1144.58
800.546	1140.08
800.851	1082.42
801.157	1028.1
801.462	1003.31
801.767	981.06
802.072	1063.85
802.377	1163.13
802.682	1188.99
802.987	1112.8
803.292	1093.96
803.597	1053.43
803.902	1046.4
804.207	1097.05
804.511	1118.43
804.816	1177.47
805.12	1384.56
805.425	1580.73
805.729	1561.72
806.034	1450.38
806.338	1283.89
806.642	1240.95
806.946	1241.51
807.251	1281.93
807.555	1293.99
807.859	1258.63
808.162	1273.23
808.466	1176.06
808.77	1098.18
809.074	1038.8
809.378	1039.64
809.681	1054
809.985	1049.49
810.288	1035.42
810.592	1019.65
810.895	956.26
811.198	886.88
811.502	818.29
811.805	818.86
812.108	842.86
812.411	944.42
812.714	1100.43
813.017	1196.85
813.32	1215.67
813.623	1160.6
813.926	995.71
814.228	924.68
814.531	858.66
814.833	794.28
815.136	813.77
815.438	814.05
815.741	882.09
816.043	886.88
816.345	938.78
816.648	893.94
816.95	888.58
817.252	830.15
817.554	798.24
817.856	797.67
818.158	756.7
818.46	757.55
818.761	783.26
819.063	786.94
819.365	821.4
819.666	897.04
819.968	967.81
820.269	1003.88
820.571	947.24
820.872	870.23
821.173	805.3
821.475	783.26
821.776	775.63
822.077	768.57
822.378	786.37
822.679	785.24
822.98	734.65
823.281	738.04
823.581	708.07
823.882	732.67
824.183	757.55
824.483	779.87
824.784	788.91
825.084	823.94
825.385	831.56
825.685	769.42
825.985	773.09
826.286	769.98
826.586	814.05
826.886	834.95
827.186	797.95
827.486	746.52
827.786	726.17
828.086	726.45
828.386	763.2
828.685	760.66
828.985	763.2
829.285	735.78
829.584	700.71
829.884	638.17
830.183	622.31
830.482	618.92
830.782	614.38
831.081	578.97
831.38	588.32
831.679	591.72
831.978	608.15
832.277	671
832.576	689.4
832.875	665.06
833.174	642.98
833.472	668.17
833.771	665.34
834.07	711.18
834.368	681.76
834.667	651.76
834.965	641
835.263	646.38
835.562	615.8
835.86	605.89
836.158	597.11
836.456	569.91
836.754	537.88
837.052	583.22
837.35	571.61
837.648	558.85
837.946	572.17
838.243	551.77
838.541	573.59
838.839	558
839.136	618.35
839.434	588.32
839.731	580.96
840.028	588.32
840.326	579.82
840.623	569.62
840.92	548.93
841.217	593.14
841.514	546.1
841.811	522.56
842.108	561.69
842.405	559.14
842.701	526.82
842.998	538.16
843.295	523.98
843.591	556.58
843.888	552.33
844.184	538.73
844.481	529.37
844.777	537.59
845.073	505.26
845.369	538.73
845.665	526.53
845.962	522.28
846.258	502.14
846.553	515.47
846.849	516.61
847.145	522.85
847.441	539.01
847.737	520.29
848.032	524.26
848.328	516.89
848.623	536.74
848.919	508.67
849.214	512.35
849.509	512.92
849.805	523.41
850.1	501.01
850.395	518.88
850.69	511.5
850.985	484.27
851.28	529.65
851.575	499.59
851.869	527.67
852.164	548.08
852.459	573.31
852.753	579.26
853.048	626.84
853.342	619.2
853.637	636.47
853.931	629.68
854.225	627.98
854.52	605.32
854.814	615.23
855.108	598.24
855.402	601.92
855.696	585.21
855.99	585.77
856.283	561.4
856.577	594.84
856.871	599.66
857.164	552.33
857.458	552.05
857.751	538.73
858.045	544.4
858.338	525.97
858.632	554.88
858.925	536.46
859.218	516.61
859.511	524.55
859.804	522.85
860.097	531.35
860.39	509.8
860.683	546.38
860.976	519.44
861.268	505.55
861.561	507.82
861.854	492.78
862.146	492.21
862.439	506.96
862.731	508.38
863.023	489.38
863.316	507.25
863.608	509.23
863.9	536.74
864.192	523.7
864.484	510.37
864.776	513.2
865.068	511.22
865.36	516.61
865.651	495.9
865.943	479.45
866.235	514.91
866.526	504.7
866.818	475.19
867.109	508.38
867.4	513.77
867.692	501.01
867.983	492.78
868.274	490.51
868.565	513.49
868.856	494.77
869.147	474.91
869.438	479.16
869.729	497.04
870.02	488.53
870.31	503.28
870.601	496.75
870.892	489.94
871.182	498.74
871.473	521.71
871.763	524.55
872.053	536.74
872.343	504.7
872.634	493.92
872.924	481.72
873.214	494.2
873.504	458.45
873.794	483.14
874.084	521.43
874.373	470.93
874.663	505.26
874.953	500.16
875.242	502.71
875.532	458.45
875.821	487.39
876.111	524.55
876.4	504.13
876.689	523.13
876.978	503.28
877.268	495.9
877.557	520.01
877.846	501.29
878.134	461
878.423	461
878.712	461
