Data from FLMS007011_12-43-26-984.txt Node
Date: Thu Apr 21 12:43:26 MDT 2016
User: lab_user
Spectrometer: FLMS00701
Autoset integration time: false
Trigger mode: 0
Integration Time (sec): 5.000000E-3
Scans to average: 10
Electric dark correction enabled: true
Nonlinearity correction enabled: true
Boxcar width: 0
XAxis mode: Wavelengths
Stop averaging: false
Number of Pixels in Spectrum: 2048
>>>>>Begin Spectral Data<<<<<
178.41	43.89
178.791	43.89
179.172	43.89
179.553	-50.97
179.934	-69.27
180.316	-62.12
180.697	-96.44
181.078	-62.4
181.459	-55.83
181.84	-52.97
182.221	-40.96
182.602	-13.24
182.983	12.76
183.364	45.31
183.744	61.3
184.125	74.43
184.506	81.28
184.887	96.97
185.268	129.2
185.648	149.73
186.029	179.66
186.41	202.74
186.791	222.1
187.171	233.21
187.552	247.16
187.932	288.14
188.313	300.38
188.694	298.39
189.074	353.84
189.455	375.72
189.835	343.32
190.216	374.59
190.596	368.62
190.977	379.42
191.357	400.16
191.737	391.07
192.118	415.21
192.498	433.67
192.878	433.67
193.258	447.01
193.639	443.89
194.019	459.22
194.399	435.37
194.779	436.51
195.159	439.35
195.54	463.76
195.92	437.08
196.3	469.44
196.68	470
197.06	441.62
197.44	445.31
197.82	445.88
198.2	473.41
198.58	445.88
198.959	418.05
199.339	438.5
199.719	423.45
200.099	454.96
200.479	436.51
200.858	412.65
201.238	407.54
201.618	435.94
201.998	414.93
202.377	430.83
202.757	406.12
203.136	401.86
203.516	407.54
203.896	392.2
204.275	424.58
204.655	424.01
205.034	385.95
205.414	416.63
205.793	399.87
206.172	415.78
206.552	413.22
206.931	394.47
207.31	387.09
207.69	416.91
208.069	420.89
208.448	389.93
208.827	424.3
209.207	401.29
209.586	397.03
209.965	401.29
210.344	392.2
210.723	402.43
211.102	395.33
211.481	415.49
211.86	409.81
212.239	419.19
212.618	401.29
212.997	387.09
213.376	392.2
213.755	421.17
214.134	423.73
214.513	422.59
214.891	430.26
215.27	403.28
215.649	427.14
216.028	419.19
216.406	420.32
216.785	429.13
217.164	402.43
217.542	381.69
217.921	410.1
218.3	411.23
218.678	420.04
219.057	427.71
219.435	412.94
219.814	423.45
220.192	430.26
220.57	422.88
220.949	414.93
221.327	418.33
221.705	414.64
222.084	433.1
222.462	411.23
222.84	427.71
223.218	428.56
223.597	418.9
223.975	435.37
224.353	406.69
224.731	418.9
225.109	422.03
225.487	418.05
225.865	410.38
226.243	407.26
226.621	440.77
226.999	427.14
227.377	393.91
227.755	410.95
228.133	405.84
228.511	407.83
228.889	445.31
229.266	422.31
229.644	421.74
230.022	437.36
230.4	454.68
230.777	414.64
231.155	424.01
231.533	428.56
231.91	434.52
232.288	431.11
232.665	422.03
233.043	417.77
233.42	433.95
233.798	428.56
234.175	420.04
234.553	421.17
234.93	441.62
235.307	429.98
235.685	425.43
236.062	434.52
236.439	419.19
236.816	402.71
237.194	447.01
237.571	451.84
237.948	440.2
238.325	437.08
238.702	411.52
239.079	443.61
239.456	430.55
239.833	426.85
240.21	441.62
240.587	408.96
240.964	409.53
241.341	405.55
241.718	440.48
242.095	436.79
242.472	441.05
242.849	422.03
243.225	424.01
243.602	453.83
243.979	429.41
244.356	428.84
244.732	404.7
245.109	428.56
245.486	452.97
245.862	428.27
246.239	421.17
246.615	445.88
246.992	437.64
247.368	429.13
247.745	436.22
248.121	444.46
248.497	436.79
248.874	423.45
249.25	432.25
249.626	452.69
250.003	444.74
250.379	412.65
250.755	430.55
251.131	439.63
251.507	423.73
251.884	439.06
252.26	454.11
252.636	460.07
253.012	437.93
253.388	427.71
253.764	437.36
254.14	414.07
254.516	423.45
254.892	448.15
255.268	444.17
255.643	447.86
256.019	448.43
256.395	468.3
256.771	444.74
257.147	445.31
257.522	446.44
257.898	443.89
258.274	450.99
258.649	424.3
259.025	471.71
259.4	421.17
259.776	449.28
260.151	454.68
260.527	433.38
260.902	419.47
261.278	433.67
261.653	456.1
262.028	417.2
262.404	443.89
262.779	443.04
263.154	430.83
263.53	449.57
263.905	460.35
264.28	450.99
264.655	433.38
265.03	448.15
265.405	418.62
265.781	437.93
266.156	437.93
266.531	446.16
266.906	465.46
267.281	452.97
267.655	443.04
268.03	450.7
268.405	448.43
268.78	416.35
269.155	427.71
269.53	427.99
269.904	416.63
270.279	454.11
270.654	465.46
271.029	443.89
271.403	460.35
271.778	437.64
272.152	445.88
272.527	432.82
272.901	450.99
273.276	451.55
273.65	451.84
274.025	468.87
274.399	452.41
274.774	429.98
275.148	446.44
275.522	476.53
275.897	444.17
276.271	477.95
276.645	433.67
277.019	450.7
277.393	459.5
277.768	450.7
278.142	461.77
278.516	445.88
278.89	438.21
279.264	439.35
279.638	447.86
280.012	454.11
280.386	461.21
280.76	454.39
281.133	468.58
281.507	443.89
281.881	462.34
282.255	442.47
282.629	454.39
283.002	454.96
283.376	458.37
283.75	440.2
284.123	455.24
284.497	474.26
284.87	452.12
285.244	475.96
285.618	472.56
285.991	467.17
286.364	454.96
286.738	452.97
287.111	456.38
287.485	456.1
287.858	469.72
288.231	456.95
288.605	464.04
288.978	466.31
289.351	452.12
289.724	431.11
290.097	455.24
290.47	455.24
290.843	456.66
291.217	451.84
291.59	459.22
291.963	447.86
292.336	426
292.708	455.24
293.081	432.53
293.454	474.83
293.827	445.03
294.2	445.88
294.573	475.68
294.945	442.47
295.318	462.06
295.691	439.35
296.064	447.58
296.436	449.57
296.809	453.54
297.181	460.92
297.554	460.07
297.926	462.06
298.299	452.12
298.671	451.55
299.044	450.7
299.416	456.38
299.788	464.33
300.161	449.28
300.533	457.23
300.905	418.9
301.278	441.62
301.65	473.98
302.022	460.92
302.394	443.61
302.766	441.9
303.138	467.45
303.51	456.66
303.882	467.17
304.254	450.14
304.626	452.41
304.998	451.84
305.37	448.15
305.742	431.11
306.114	467.17
306.485	470.29
306.857	438.78
307.229	454.11
307.601	474.83
307.972	451.55
308.344	453.83
308.716	460.64
309.087	436.51
309.459	472.56
309.83	448.72
310.202	456.38
310.573	475.96
310.945	468.58
311.316	458.93
311.687	461.49
312.059	479.94
312.43	492.42
312.801	445.88
313.172	437.08
313.544	473.12
313.915	468.02
314.286	464.33
314.657	474.54
315.028	432.25
315.399	451.27
315.77	472.84
316.141	481.07
316.512	462.91
316.883	467.73
317.254	440.77
317.625	468.3
317.996	453.54
318.366	488.16
318.737	451.84
319.108	462.06
319.478	469.72
319.849	460.64
320.22	458.08
320.59	466.6
320.961	466.88
321.331	466.88
321.702	471.71
322.072	439.35
322.443	454.68
322.813	475.96
323.184	469.44
323.554	457.52
323.924	481.35
324.295	471.71
324.665	462.34
325.035	485.89
325.405	464.33
325.775	450.42
326.145	454.11
326.515	464.61
326.886	441.05
327.256	468.3
327.626	461.21
327.995	453.26
328.365	474.54
328.735	464.61
329.105	443.32
329.475	442.47
329.845	476.25
330.215	482.2
330.584	465.75
330.954	453.83
331.324	468.3
331.693	481.35
332.063	442.47
332.432	464.33
332.802	462.34
333.171	485.89
333.541	455.24
333.91	474.54
334.28	466.03
334.649	462.34
335.018	479.37
335.388	499.51
335.757	459.22
336.126	456.66
336.495	457.52
336.865	481.92
337.234	444.74
337.603	475.96
337.972	456.1
338.341	452.69
338.71	451.84
339.079	461.77
339.448	457.8
339.817	477.1
340.186	468.3
340.554	471.14
340.923	468.58
341.292	471.99
341.661	472.84
342.029	478.23
342.398	462.06
342.767	482.2
343.135	496.39
343.504	463.19
343.872	474.26
344.241	455.24
344.609	475.68
344.978	489.3
345.346	456.95
345.715	491.28
346.083	454.96
346.451	460.35
346.82	455.53
347.188	459.79
347.556	466.03
347.924	444.74
348.292	461.77
348.66	471.42
349.028	468.87
349.396	429.98
349.764	468.87
350.132	470.57
350.5	485.61
350.868	447.01
351.236	483.62
351.604	456.95
351.972	488.73
352.34	482.77
352.707	453.54
353.075	450.42
353.443	449.57
353.81	460.64
354.178	473.12
354.545	458.65
354.913	454.68
355.28	471.99
355.648	464.33
356.015	463.19
356.383	481.07
356.75	465.75
357.117	469.72
357.485	455.24
357.852	471.99
358.219	460.92
358.586	483.06
358.954	464.04
359.321	497.81
359.688	485.04
360.055	433.95
360.422	485.61
360.789	443.32
361.156	479.94
361.523	474.83
361.89	475.39
362.256	481.92
362.623	460.35
362.99	438.5
363.357	447.3
363.724	464.89
364.09	463.76
364.457	470
364.823	480.5
365.19	454.96
365.557	471.42
365.923	465.46
366.29	474.26
366.656	479.65
367.022	492.14
367.389	458.08
367.755	473.69
368.121	479.08
368.488	444.74
368.854	461.21
369.22	456.38
369.586	471.71
369.952	448.72
370.318	491.85
370.684	460.64
371.051	446.73
371.416	473.98
371.782	459.22
372.148	469.72
372.514	454.11
372.88	474.83
373.246	467.45
373.612	463.48
373.977	465.75
374.343	467.73
374.709	471.99
375.074	480.22
375.44	456.66
375.806	466.88
376.171	471.71
376.537	461.21
376.902	493.84
377.268	466.6
377.633	450.42
377.998	466.6
378.364	461.77
378.729	487.88
379.094	478.8
379.459	469.72
379.825	469.72
380.19	470.85
380.555	485.33
380.92	481.64
381.285	476.25
381.65	492.42
382.015	452.41
382.38	466.88
382.745	442.75
383.11	466.88
383.474	465.18
383.839	478.52
384.204	494.4
384.569	481.35
384.933	435.09
385.298	485.33
385.663	445.03
386.027	482.49
386.392	469.15
386.756	466.6
387.121	474.83
387.485	485.89
387.849	479.65
388.214	487.03
388.578	466.31
388.942	447.86
389.307	478.23
389.671	475.39
390.035	472.56
390.399	464.61
390.763	461.21
391.127	472.56
391.492	451.27
391.856	452.97
392.219	478.8
392.583	455.53
392.947	489.01
393.311	487.03
393.675	480.22
394.039	463.48
394.403	462.34
394.766	473.98
395.13	483.34
395.494	464.61
395.857	466.03
396.221	458.93
396.584	460.64
396.948	463.19
397.311	471.42
397.675	480.22
398.038	468.02
398.401	485.33
398.765	465.46
399.128	481.35
399.491	475.96
399.854	467.45
400.218	441.05
400.581	488.45
400.944	462.91
401.307	445.31
401.67	465.18
402.033	460.35
402.396	468.02
402.759	487.03
403.122	463.19
403.485	481.92
403.847	451.84
404.21	462.06
404.573	472.27
404.936	481.92
405.298	454.11
405.661	460.07
406.023	472.56
406.386	491.85
406.749	467.17
407.111	456.1
407.473	466.31
407.836	478.8
408.198	474.54
408.561	440.48
408.923	496.11
409.285	459.5
409.647	457.52
410.009	477.1
410.372	491.57
410.734	451.55
411.096	472.27
411.458	467.45
411.82	456.38
412.182	462.06
412.544	497.24
412.906	467.73
413.267	480.22
413.629	483.34
413.991	465.75
414.353	456.66
414.714	482.2
415.076	469.44
415.438	461.49
415.799	475.39
416.161	476.53
416.522	471.42
416.884	445.88
417.245	494.69
417.607	475.68
417.968	470.29
418.329	479.94
418.691	464.61
419.052	456.66
419.413	452.69
419.774	448.72
420.135	486.46
420.497	491.85
420.858	466.6
421.219	475.68
421.58	473.69
421.941	491.28
422.302	468.02
422.662	472.84
423.023	490.72
423.384	461.77
423.745	429.69
424.106	467.45
424.466	450.42
424.827	467.73
425.187	479.65
425.548	458.37
425.909	483.62
426.269	459.79
426.63	464.04
426.99	480.22
427.35	464.33
427.711	470.57
428.071	449.85
428.431	449.57
428.792	464.61
429.152	470.57
429.512	484.19
429.872	468.02
430.232	479.37
430.592	461.77
430.952	468.87
431.312	456.95
431.672	491
432.032	484.76
432.392	473.98
432.752	445.59
433.111	460.64
433.471	457.52
433.831	473.41
434.19	483.06
434.55	473.41
434.91	471.14
435.269	455.81
435.629	463.48
435.988	477.66
436.348	471.14
436.707	458.93
437.066	476.53
437.426	470
437.785	455.81
438.144	461.77
438.503	462.34
438.862	466.88
439.222	441.9
439.581	512.28
439.94	471.71
440.299	472.84
440.658	480.79
441.017	471.42
441.376	451.27
441.734	450.14
442.093	461.21
442.452	480.79
442.811	481.35
443.169	477.95
443.528	464.61
443.887	468.02
444.245	458.08
444.604	480.79
444.962	479.08
445.321	476.25
445.679	481.07
446.038	455.81
446.396	477.66
446.754	465.18
447.112	468.87
447.471	473.98
447.829	471.42
448.187	471.42
448.545	494.69
448.903	479.37
449.261	464.33
449.619	472.84
449.977	474.54
450.335	464.89
450.693	481.92
451.051	486.74
451.409	483.91
451.766	463.48
452.124	455.24
452.482	447.58
452.839	477.1
453.197	481.92
453.555	475.39
453.912	440.48
454.27	469.15
454.627	456.95
454.984	479.08
455.342	448.72
455.699	462.06
456.056	462.34
456.414	481.64
456.771	466.6
457.128	476.53
457.485	473.12
457.842	481.64
458.199	479.65
458.556	462.62
458.913	473.69
459.27	468.02
459.627	485.61
459.984	474.83
460.341	465.46
460.697	461.49
461.054	428.56
461.411	477.95
461.767	454.96
462.124	472.56
462.481	464.04
462.837	466.03
463.194	437.08
463.55	473.41
463.907	450.42
464.263	495.54
464.619	475.11
464.976	454.68
465.332	475.11
465.688	456.66
466.044	471.99
466.4	505.47
466.756	472.27
467.112	438.5
467.468	453.83
467.824	484.19
468.18	467.45
468.536	462.91
468.892	466.88
469.248	465.46
469.604	446.44
469.959	495.26
470.315	475.96
470.671	481.07
471.026	477.1
471.382	453.83
471.737	483.91
472.093	475.68
472.448	460.35
472.804	460.64
473.159	470.57
473.514	447.58
473.87	485.04
474.225	501.5
474.58	468.02
474.935	487.03
475.29	451.84
475.645	473.98
476	492.14
476.355	433.67
476.71	481.64
477.065	506.04
477.42	466.6
477.775	467.73
478.13	476.53
478.485	458.65
478.839	443.32
479.194	475.11
479.549	445.03
479.903	464.61
480.258	462.34
480.612	488.73
480.967	462.62
481.321	454.96
481.675	477.38
482.03	481.64
482.384	472.84
482.738	467.45
483.093	471.99
483.447	476.53
483.801	453.54
484.155	481.35
484.509	443.61
484.863	485.61
485.217	452.41
485.571	475.96
485.925	489.87
486.279	463.76
486.632	461.49
486.986	473.12
487.34	491
487.694	464.04
488.047	457.8
488.401	480.22
488.754	471.42
489.108	446.16
489.461	474.54
489.815	450.99
490.168	468.02
490.522	472.56
490.875	458.65
491.228	468.02
491.581	486.74
491.935	469.72
492.288	479.65
492.641	447.58
492.994	480.22
493.347	455.24
493.7	491.28
494.053	480.22
494.406	465.18
494.759	465.75
495.111	458.65
495.464	470.85
495.817	477.38
496.169	472.84
496.522	464.89
496.875	465.18
497.227	456.38
497.58	459.79
497.932	480.5
498.285	479.94
498.637	463.48
498.989	446.16
499.342	453.54
499.694	472.56
500.046	454.96
500.398	467.17
500.751	469.15
501.103	469.44
501.455	474.54
501.807	468.87
502.159	465.75
502.511	460.35
502.862	459.22
503.214	489.3
503.566	469.72
503.918	461.49
504.27	475.39
504.621	503.2
504.973	489.3
505.324	464.89
505.676	482.49
506.027	449.28
506.379	455.53
506.73	461.77
507.082	474.83
507.433	468.87
507.784	457.23
508.136	460.35
508.487	460.35
508.838	485.61
509.189	477.95
509.54	455.53
509.891	469.15
510.242	478.52
510.593	459.79
510.944	462.91
511.295	465.18
511.646	450.14
511.996	464.61
512.347	479.08
512.698	465.46
513.049	449.85
513.399	450.99
513.75	449.28
514.1	458.93
514.451	476.53
514.801	455.24
515.152	462.91
515.502	480.79
515.852	469.15
516.202	491.57
516.553	469.44
516.903	486.46
517.253	473.12
517.603	455.24
517.953	464.33
518.303	481.07
518.653	467.73
519.003	481.64
519.353	472.27
519.703	467.17
520.052	465.18
520.402	463.76
520.752	480.22
521.102	471.42
521.451	456.66
521.801	492.14
522.15	472.27
522.5	471.42
522.849	458.08
523.199	443.04
523.548	462.34
523.897	478.8
524.246	475.11
524.596	494.69
524.945	464.04
525.294	477.38
525.643	471.14
525.992	457.52
526.341	449.57
526.69	468.02
527.039	450.42
527.388	458.08
527.737	464.33
528.086	496.67
528.434	480.22
528.783	478.52
529.132	477.66
529.48	475.68
529.829	496.96
530.177	463.76
530.526	477.38
530.874	456.1
531.223	468.87
531.571	464.61
531.919	457.23
532.268	485.33
532.616	485.33
532.964	449.57
533.312	455.53
533.66	460.64
534.008	494.97
534.356	470.85
534.704	467.45
535.052	449.57
535.4	458.93
535.748	457.8
536.095	444.46
536.443	491.57
536.791	459.5
537.139	459.79
537.486	463.48
537.834	439.63
538.181	447.86
538.529	473.41
538.876	459.79
539.223	458.37
539.571	467.17
539.918	456.95
540.265	455.53
540.613	467.45
540.96	466.31
541.307	479.37
541.654	454.68
542.001	499.51
542.348	485.33
542.695	473.41
543.042	464.89
543.388	461.49
543.735	442.75
544.082	442.47
544.429	444.46
544.775	445.03
545.122	465.18
545.469	470.57
545.815	468.3
546.162	503.77
546.508	457.8
546.854	456.1
547.201	482.49
547.547	455.81
547.893	466.03
548.24	454.39
548.586	453.26
548.932	435.94
549.278	458.93
549.624	477.1
549.97	470.85
550.316	465.46
550.662	472.27
551.008	451.27
551.353	452.97
551.699	496.39
552.045	455.81
552.391	473.98
552.736	457.52
553.082	435.37
553.427	467.17
553.773	476.25
554.118	472.56
554.464	471.42
554.809	481.07
555.154	453.83
555.5	465.18
555.845	450.99
556.19	483.91
556.535	458.65
556.88	459.22
557.225	458.65
557.57	468.58
557.915	462.34
558.26	458.37
558.605	481.07
558.95	465.46
559.295	471.99
559.639	446.16
559.984	464.33
560.329	444.17
560.673	454.11
561.018	467.73
561.362	466.6
561.707	478.8
562.051	461.21
562.395	468.02
562.74	432.53
563.084	460.92
563.428	480.79
563.772	454.68
564.117	447.58
564.461	466.88
564.805	475.96
565.149	474.83
565.493	499.23
565.836	473.69
566.18	475.68
566.524	470.85
566.868	466.03
567.212	462.34
567.555	493.27
567.899	454.11
568.242	473.41
568.586	472.27
568.929	470.29
569.273	470.29
569.616	471.99
569.96	479.37
570.303	429.98
570.646	499.23
570.989	470.85
571.333	452.97
571.676	460.64
572.019	459.5
572.362	474.83
572.705	475.68
573.048	454.11
573.391	464.89
573.733	452.69
574.076	469.44
574.419	465.75
574.762	456.66
575.104	471.42
575.447	448.43
575.789	459.5
576.132	459.22
576.474	479.37
576.817	461.21
577.159	456.66
577.501	456.95
577.844	457.52
578.186	473.41
578.528	475.11
578.87	454.96
579.212	445.59
579.554	434.24
579.896	445.31
580.238	487.88
580.58	467.45
580.922	475.39
581.264	457.8
581.606	470
581.947	465.75
582.289	467.73
582.631	457.23
582.972	438.5
583.314	469.44
583.655	468.58
583.997	477.1
584.338	476.81
584.679	491.85
585.021	440.77
585.362	481.07
585.703	450.42
586.044	454.68
586.385	473.69
586.726	471.14
587.067	465.46
587.408	447.86
587.749	470.85
588.09	467.45
588.431	461.49
588.772	450.14
589.113	459.5
589.453	433.1
589.794	466.31
590.134	464.61
590.475	471.14
590.815	452.41
591.156	475.68
591.496	469.44
591.837	475.68
592.177	476.81
592.517	459.79
592.857	462.34
593.198	491
593.538	440.2
593.878	455.81
594.218	464.61
594.558	431.97
594.898	479.37
595.237	447.01
595.577	461.21
595.917	477.95
596.257	450.99
596.596	459.22
596.936	465.46
597.276	465.18
597.615	486.46
597.955	458.08
598.294	458.37
598.633	469.15
598.973	470.57
599.312	472.84
599.651	468.87
599.991	488.16
600.33	466.88
600.669	468.3
601.008	465.18
601.347	486.74
601.686	464.04
602.025	474.26
602.364	490.15
602.702	489.3
603.041	458.37
603.38	441.33
603.719	460.92
604.057	454.39
604.396	451.84
604.734	460.35
605.073	438.21
605.411	454.68
605.75	458.08
606.088	475.96
606.426	454.68
606.764	443.04
607.103	456.1
607.441	465.46
607.779	463.48
608.117	446.16
608.455	469.15
608.793	476.25
609.131	436.79
609.469	424.01
609.806	493.84
610.144	470.85
610.482	462.62
610.819	465.46
611.157	450.14
611.495	456.95
611.832	460.64
612.17	450.14
612.507	475.39
612.844	454.68
613.182	459.79
613.519	455.53
613.856	476.81
614.193	471.42
614.53	475.11
614.867	430.83
615.205	470.57
615.541	451.55
615.878	475.39
616.215	455.53
616.552	473.69
616.889	432.25
617.226	463.19
617.562	464.33
617.899	457.52
618.235	494.97
618.572	429.41
618.908	453.54
619.245	462.91
619.581	462.06
619.918	475.96
620.254	459.5
620.59	459.22
620.926	459.79
621.262	461.49
621.599	454.96
621.935	449.28
622.271	445.59
622.606	494.69
622.942	465.75
623.278	460.07
623.614	470.85
623.95	444.46
624.285	464.33
624.621	494.12
624.957	466.31
625.292	480.5
625.628	453.54
625.963	431.11
626.299	472.84
626.634	469.72
626.969	486.74
627.304	452.69
627.64	458.08
627.975	494.4
628.31	458.93
628.645	472.56
628.98	460.64
629.315	465.18
629.65	491.57
629.985	458.65
630.319	449
630.654	455.53
630.989	438.78
631.323	460.64
631.658	452.69
631.993	477.95
632.327	462.34
632.662	474.83
632.996	484.47
633.33	479.08
633.665	452.69
633.999	444.74
634.333	454.68
634.667	426.57
635.001	456.66
635.335	483.34
635.669	468.87
636.003	466.31
636.337	495.82
636.671	443.89
637.005	473.69
637.339	463.48
637.672	462.34
638.006	469.72
638.339	470
638.673	462.91
639.006	463.19
639.34	453.54
639.673	475.11
640.007	463.76
640.34	440.77
640.673	464.04
641.006	453.54
641.34	449
641.673	463.19
642.006	466.6
642.339	473.41
642.672	473.69
643.004	456.1
643.337	470.57
643.67	467.73
644.003	441.05
644.336	472.27
644.668	474.54
645.001	451.55
645.333	451.84
645.666	435.66
645.998	442.19
646.331	468.58
646.663	460.35
646.995	454.96
647.327	476.81
647.66	447.01
647.992	454.96
648.324	465.46
648.656	454.39
648.988	433.38
649.32	454.68
649.652	468.87
649.983	478.23
650.315	446.44
650.647	471.71
650.979	494.12
651.31	452.12
651.642	462.62
651.973	471.71
652.305	455.53
652.636	464.89
652.967	491.28
653.299	464.04
653.63	448.72
653.961	456.1
654.292	450.42
654.623	469.72
654.955	484.47
655.286	495.54
655.616	489.3
655.947	450.7
656.278	452.41
656.609	469.44
656.94	473.69
657.27	472.27
657.601	474.83
657.932	466.03
658.262	462.62
658.593	474.54
658.923	460.35
659.254	454.39
659.584	450.14
659.914	460.92
660.244	436.79
660.575	458.08
660.905	486.74
661.235	459.79
661.565	469.44
661.895	471.14
662.225	479.65
662.555	468.02
662.884	433.95
663.214	457.8
663.544	441.62
663.873	473.98
664.203	457.8
664.533	458.65
664.862	444.74
665.192	462.34
665.521	456.38
665.85	466.88
666.18	432.53
666.509	450.42
666.838	452.41
667.167	492.14
667.496	465.46
667.825	451.27
668.154	479.94
668.483	469.72
668.812	476.25
669.141	468.02
669.47	448.43
669.798	469.72
670.127	460.07
670.456	458.93
670.784	464.61
671.113	439.63
671.441	470.57
671.77	467.17
672.098	467.45
672.426	469.44
672.755	452.41
673.083	475.11
673.411	468.02
673.739	446.44
674.067	473.12
674.395	442.75
674.723	456.1
675.051	458.65
675.379	481.64
675.706	473.12
676.034	479.65
676.362	441.05
676.689	476.53
677.017	447.01
677.344	476.25
677.672	457.8
677.999	470.57
678.327	466.6
678.654	469.72
678.981	465.75
679.308	454.68
679.636	461.49
679.963	431.97
680.29	469.72
680.617	445.88
680.944	486.18
681.271	443.61
681.597	461.21
681.924	471.14
682.251	444.17
682.578	420.32
682.904	480.22
683.231	459.79
683.557	478.23
683.884	465.46
684.21	460.07
684.536	433.67
684.863	442.75
685.189	462.34
685.515	471.14
685.841	460.92
686.167	476.53
686.493	463.19
686.819	466.31
687.145	473.12
687.471	468.58
687.797	461.21
688.123	495.82
688.448	455.81
688.774	480.79
689.1	461.21
689.425	462.62
689.751	464.33
690.076	458.65
690.402	460.07
690.727	475.68
691.052	462.06
691.377	457.8
691.703	445.31
692.028	447.86
692.353	439.35
692.678	446.16
693.003	485.89
693.328	452.41
693.652	462.06
693.977	464.04
694.302	496.67
694.627	462.34
694.951	466.6
695.276	463.19
695.6	431.68
695.925	450.99
696.249	463.76
696.574	485.33
696.898	464.89
697.222	452.69
697.546	472.56
697.871	469.44
698.195	464.89
698.519	470.57
698.843	477.1
699.167	466.03
699.491	467.45
699.814	454.39
700.138	442.75
700.462	476.25
700.786	449.57
701.109	475.96
701.433	452.97
701.756	457.23
702.08	457.23
702.403	426.85
702.726	471.14
703.05	464.61
703.373	475.68
703.696	458.37
704.019	453.83
704.342	476.53
704.665	475.96
704.988	457.52
705.311	470.85
705.634	454.39
705.957	448.15
706.28	478.52
706.602	477.1
706.925	456.95
707.247	463.19
707.57	478.23
707.892	503.77
708.215	458.37
708.537	485.89
708.859	483.91
709.182	462.06
709.504	474.54
709.826	474.26
710.148	467.73
710.47	442.19
710.792	494.12
711.114	468.3
711.436	456.66
711.758	471.14
712.079	481.07
712.401	455.81
712.723	470.57
713.044	441.9
713.366	456.66
713.687	457.52
714.009	482.2
714.33	471.71
714.652	442.75
714.973	448.72
715.294	437.93
715.615	498.66
715.936	473.98
716.257	465.75
716.578	475.68
716.899	429.69
717.22	490.43
717.541	451.84
717.862	455.81
718.182	442.19
718.503	459.5
718.824	450.99
719.144	465.18
719.465	442.47
719.785	473.41
720.105	466.03
720.426	437.36
720.746	450.14
721.066	454.11
721.386	477.1
721.706	445.59
722.026	454.11
722.346	452.12
722.666	465.18
722.986	468.58
723.306	472.27
723.626	456.66
723.946	439.92
724.265	446.44
724.585	459.79
724.904	481.35
725.224	474.54
725.543	481.07
725.863	451.55
726.182	453.26
726.501	449
726.82	444.17
727.14	448.72
727.459	468.87
727.778	462.06
728.097	435.37
728.416	445.59
728.734	450.7
729.053	470
729.372	435.37
729.691	469.15
730.009	450.42
730.328	482.2
730.647	464.89
730.965	488.45
731.283	448.15
731.602	451.55
731.92	471.71
732.238	437.93
732.557	450.42
732.875	457.8
733.193	460.07
733.511	446.44
733.829	441.62
734.147	474.54
734.465	462.06
734.782	449.85
735.1	482.2
735.418	466.6
735.735	469.44
736.053	481.35
736.371	457.52
736.688	459.5
737.005	453.26
737.323	458.37
737.64	456.66
737.957	463.19
738.274	460.92
738.592	490.15
738.909	449.28
739.226	465.46
739.543	479.08
739.86	478.8
740.176	456.95
740.493	423.45
740.81	433.95
741.127	450.42
741.443	452.12
741.76	464.04
742.076	457.23
742.393	486.46
742.709	460.07
743.025	451.55
743.342	475.68
743.658	457.23
743.974	470.85
744.29	470.85
744.606	453.54
744.922	441.9
745.238	424.87
745.554	430.83
745.87	452.69
746.186	475.68
746.501	460.64
746.817	483.06
747.132	480.22
747.448	431.97
747.763	471.71
748.079	466.31
748.394	436.79
748.71	471.14
749.025	463.19
749.34	453.26
749.655	441.05
749.97	454.11
750.285	447.3
750.6	464.89
750.915	460.92
751.23	466.31
751.545	466.31
751.859	489.3
752.174	476.81
752.489	448.43
752.803	482.49
753.118	479.94
753.432	444.74
753.747	484.47
754.061	459.22
754.375	496.39
754.689	454.11
755.004	447.01
755.318	456.66
755.632	466.6
755.946	471.99
756.26	429.13
756.573	464.33
756.887	455.24
757.201	437.36
757.515	449
757.828	468.87
758.142	434.52
758.455	494.12
758.769	477.95
759.082	458.93
759.396	452.12
759.709	491.57
760.022	470.85
760.335	466.88
760.648	464.04
760.962	452.12
761.275	449.57
761.587	435.66
761.9	485.61
762.213	455.81
762.526	458.08
762.839	464.33
763.151	458.93
763.464	462.06
763.776	456.66
764.089	462.91
764.401	450.7
764.714	494.4
765.026	468.87
765.338	450.42
765.65	483.06
765.962	467.17
766.275	475.11
766.587	480.79
766.898	485.33
767.21	439.35
767.522	445.31
767.834	467.17
768.146	481.07
768.457	462.06
768.769	463.76
769.08	461.49
769.392	449.28
769.703	450.99
770.015	470.85
770.326	445.03
770.637	468.02
770.948	444.46
771.26	460.92
771.571	458.37
771.882	452.69
772.193	443.04
772.504	438.21
772.814	465.46
773.125	471.99
773.436	460.35
773.747	471.14
774.057	469.44
774.368	462.91
774.678	480.22
774.989	453.83
775.299	443.61
775.609	442.75
775.919	452.12
776.23	470.85
776.54	461.77
776.85	422.03
777.16	459.5
777.47	453.54
777.78	448.15
778.089	488.73
778.399	456.95
778.709	480.5
779.019	440.2
779.328	460.07
779.638	446.44
779.947	444.46
780.257	467.17
780.566	451.84
780.875	445.31
781.185	423.73
781.494	469.44
781.803	452.69
782.112	476.81
782.421	432.53
782.73	473.41
783.039	442.19
783.348	444.74
783.656	463.76
783.965	451.27
784.274	466.31
784.582	447.3
784.891	460.07
785.199	462.06
785.508	456.95
785.816	467.45
786.124	482.77
786.432	466.03
786.741	448.15
787.049	458.37
787.357	458.93
787.665	470.85
787.973	490.15
788.281	458.65
788.588	481.35
788.896	452.69
789.204	447.86
789.511	448.72
789.819	465.46
790.126	464.61
790.434	460.35
790.741	436.51
791.049	452.97
791.356	471.71
791.663	470.29
791.97	464.61
792.277	445.59
792.584	441.05
792.891	445.31
793.198	460.35
793.505	478.52
793.812	454.68
794.119	466.31
794.425	450.7
794.732	442.19
795.038	444.74
795.345	454.39
795.651	451.84
795.958	463.76
796.264	464.04
796.57	425.43
796.876	447.58
797.183	462.91
797.489	474.54
797.795	428.84
798.101	448.43
798.406	471.42
798.712	469.15
799.018	469.44
799.324	452.12
799.629	459.22
799.935	452.97
800.24	473.98
800.546	461.77
800.851	471.99
801.157	447.3
801.462	461.49
801.767	467.73
802.072	471.42
802.377	459.79
802.682	456.1
802.987	443.32
803.292	429.98
803.597	460.64
803.902	463.19
804.207	495.82
804.511	467.17
804.816	449.85
805.12	433.95
805.425	480.22
805.729	473.41
806.034	458.65
806.338	470.85
806.642	464.89
806.946	465.18
807.251	478.23
807.555	445.31
807.859	466.03
808.162	423.73
808.466	439.63
808.77	461.77
809.074	444.46
809.378	448.72
809.681	461.21
809.985	445.88
810.288	443.32
810.592	462.06
810.895	451.27
811.198	450.42
811.502	469.15
811.805	463.19
812.108	450.14
812.411	463.48
812.714	458.37
813.017	458.37
813.32	450.14
813.623	471.99
813.926	442.19
814.228	460.07
814.531	465.75
814.833	448.43
815.136	408.68
815.438	463.48
815.741	448.72
816.043	452.97
816.345	468.87
816.648	452.12
816.95	455.53
817.252	460.64
817.554	443.04
817.856	454.96
818.158	453.26
818.46	436.51
818.761	452.12
819.063	447.3
819.365	475.96
819.666	460.64
819.968	460.07
820.269	459.22
820.571	434.52
820.872	441.33
821.173	466.03
821.475	465.46
821.776	456.1
822.077	489.3
822.378	439.06
822.679	454.11
822.98	473.12
823.281	497.24
823.581	460.64
823.882	460.64
824.183	453.54
824.483	447.86
824.784	454.68
825.084	441.9
825.385	449
825.685	483.91
825.985	452.12
826.286	442.19
826.586	419.75
826.886	481.07
827.186	465.46
827.486	491.57
827.786	463.76
828.086	467.45
828.386	486.46
828.685	451.84
828.985	452.69
829.285	429.98
829.584	449.85
829.884	477.66
830.183	458.37
830.482	468.87
830.782	444.46
831.081	454.96
831.38	447.58
831.679	459.5
831.978	460.92
832.277	448.15
832.576	458.08
832.875	459.79
833.174	471.71
833.472	463.76
833.771	470
834.07	441.9
834.368	486.18
834.667	454.96
834.965	449
835.263	466.03
835.562	451.27
835.86	459.5
836.158	453.26
836.456	451.84
836.754	442.19
837.052	450.42
837.35	461.77
837.648	476.81
837.946	485.61
838.243	484.47
838.541	462.34
838.839	461.49
839.136	460.64
839.434	447.86
839.731	465.18
840.028	455.81
840.326	461.49
840.623	454.96
840.92	472.56
841.217	439.06
841.514	457.8
841.811	450.42
842.108	466.31
842.405	462.91
842.701	475.96
842.998	433.67
843.295	446.44
843.591	442.19
843.888	457.23
844.184	474.54
844.481	483.62
844.777	449.57
845.073	454.39
845.369	466.31
845.665	457.52
845.962	448.72
846.258	459.5
846.553	466.31
846.849	438.78
847.145	458.08
847.441	469.15
847.737	458.93
848.032	435.37
848.328	447.3
848.623	455.24
848.919	461.49
849.214	456.95
849.509	438.5
849.805	455.81
850.1	440.2
850.395	455.53
850.69	437.36
850.985	463.76
851.28	465.18
851.575	458.93
851.869	463.48
852.164	448.43
852.459	438.78
852.753	418.33
853.048	453.83
853.342	470.29
853.637	454.96
853.931	451.84
854.225	443.61
854.52	467.73
854.814	439.63
855.108	450.99
855.402	450.7
855.696	452.41
855.99	448.15
856.283	443.32
856.577	445.88
856.871	460.35
857.164	460.64
857.458	444.17
857.751	456.95
858.045	445.59
858.338	444.74
858.632	467.45
858.925	462.91
859.218	452.12
859.511	445.88
859.804	469.15
860.097	428.27
860.39	447.58
860.683	463.19
860.976	450.42
861.268	468.02
861.561	475.11
861.854	434.24
862.146	472.56
862.439	470
862.731	473.98
863.023	430.55
863.316	452.12
863.608	447.58
863.9	468.3
864.192	456.95
864.484	461.77
864.776	468.3
865.068	440.2
865.36	445.31
865.651	477.95
865.943	455.24
866.235	464.89
866.526	445.03
866.818	481.35
867.109	472.56
867.4	438.21
867.692	446.73
867.983	446.16
868.274	435.09
868.565	458.65
868.856	445.03
869.147	464.33
869.438	459.79
869.729	464.04
870.02	448.72
870.31	445.88
870.601	457.23
870.892	445.03
871.182	452.97
871.473	455.53
871.763	439.92
872.053	459.79
872.343	453.26
872.634	461.77
872.924	450.14
873.214	452.41
873.504	468.02
873.794	450.7
874.084	441.62
874.373	460.64
874.663	486.18
874.953	460.92
875.242	463.19
875.532	476.53
875.821	476.81
876.111	446.44
876.4	462.91
876.689	450.42
876.978	488.73
877.268	481.64
877.557	432.82
877.846	441.05
878.134	446.73
878.423	446.73
878.712	446.73
