Data from FLMS007011_12-17-56-419.txt Node
Date: Thu Apr 21 12:17:56 MDT 2016
User: lab_user
Spectrometer: FLMS00701
Autoset integration time: false
Trigger mode: 0
Integration Time (sec): 5.000000E-3
Scans to average: 10
Electric dark correction enabled: true
Nonlinearity correction enabled: true
Boxcar width: 0
XAxis mode: Wavelengths
Stop averaging: false
Number of Pixels in Spectrum: 2048
>>>>>Begin Spectral Data<<<<<
178.41	21.76
178.791	21.76
179.172	21.76
179.553	-32.24
179.934	-46.54
180.316	-61.69
180.697	-75.42
181.078	-65.69
181.459	-20.24
181.84	-55.11
182.221	-8.81
182.602	-7.95
182.983	-11.38
183.364	29.18
183.744	14.9
184.125	53.45
184.506	108.24
184.887	113.66
185.268	160.99
185.648	160.99
186.029	186.36
186.41	207.72
186.791	237.05
187.171	274.91
187.552	330.95
187.932	322.42
188.313	359.1
188.694	407.68
189.074	396.89
189.455	405.98
189.835	472.42
190.216	428.7
190.596	432.11
190.977	482.06
191.357	485.47
191.737	485.47
192.118	488.59
192.498	525.18
192.878	517.24
193.258	516.39
193.639	508.73
194.019	550.7
194.399	507.6
194.779	524.9
195.159	564.3
195.54	539.36
195.92	548.99
196.3	548.14
196.68	576.49
197.06	562.88
197.44	547.58
197.82	564.3
198.2	539.07
198.58	573.09
198.959	569.12
199.339	537.37
199.719	541.34
200.099	538.51
200.479	539.36
200.858	549.84
201.238	555.51
201.618	539.07
201.998	547.58
202.377	576.49
202.757	537.09
203.136	543.32
203.516	566.28
203.896	541.91
204.275	533.69
204.655	574.5
205.034	559.2
205.414	565.43
205.793	558.92
206.172	582.44
206.552	569.12
206.931	597.45
207.31	576.77
207.69	579.89
208.069	597.45
208.448	578.19
208.827	598.3
209.207	581.02
209.586	583.29
209.965	598.3
210.344	591.22
210.723	609.92
211.102	609.63
211.481	635.12
211.86	635.4
212.239	616.43
212.618	615.01
212.997	636.25
213.376	622.09
213.755	669.94
214.134	663.43
214.513	682.95
214.891	648.71
215.27	698.23
215.649	675.03
216.028	675.03
216.406	712.37
216.785	705.3
217.164	722.27
217.542	747.43
217.921	763.26
218.3	756.48
218.678	757.04
219.057	790.39
219.435	814.68
219.814	824.57
220.192	819.76
220.57	853.08
220.949	863.52
221.327	883.84
221.705	870.02
222.084	898.23
222.462	921.92
222.84	940.81
223.218	971.26
223.597	1006.75
223.975	1014.36
224.353	1066.44
224.731	1076.86
225.109	1063.63
225.487	1127.77
225.865	1163.48
226.243	1189.05
226.621	1240.17
226.999	1266.27
227.377	1330.24
227.755	1325.19
228.133	1368.64
228.511	1421.6
228.889	1455.2
229.266	1489.9
229.644	1583.02
230.022	1588.89
230.4	1609.85
230.777	1642.25
231.155	1671.84
231.533	1751.63
231.91	1840.8
232.288	1843.58
232.665	1881.73
233.043	1937.65
233.42	1988.81
233.798	2075.21
234.175	2114.62
234.553	2154.57
234.93	2220.55
235.307	2268.75
235.685	2331.03
236.062	2344.86
236.439	2367.54
236.816	2483.34
237.194	2486.65
237.571	2581.86
237.948	2605.58
238.325	2649.95
238.702	2704.22
239.079	2745.79
239.456	2787.34
239.833	2872.84
240.21	2952.48
240.587	2981.03
240.964	3052.06
241.341	3077.01
241.718	3136.19
242.095	3173.97
242.472	3223.5
242.849	3257.96
243.225	3328.75
243.602	3364.26
243.979	3416.41
244.356	3455.7
244.732	3553.84
245.109	3601.77
245.486	3617.02
245.862	3659.21
246.239	3751.4
246.615	3759.82
246.992	3815.25
247.368	3849.73
247.745	3935.47
248.121	3991.86
248.497	3988.88
248.874	4036.3
249.25	4084.5
249.626	4187.58
250.003	4168.65
250.379	4222.99
250.755	4278.65
251.131	4342.37
251.507	4376.1
251.884	4427.07
252.26	4450.53
252.636	4538.62
253.012	4543.47
253.388	4607.26
253.764	4676.66
254.14	4689.83
254.516	4764.26
254.892	4748.95
255.268	4771.78
255.643	4782.52
256.019	4825.74
256.395	4873.5
256.771	4942.69
257.147	4975.11
257.522	4962.79
257.898	4968.15
258.274	5023.06
258.649	5028.15
259.025	5072.86
259.4	5089.99
259.776	5156.33
260.151	5143.76
260.527	5164.89
260.902	5202.85
261.278	5197.77
261.653	5206.32
262.028	5218.88
262.404	5295.54
262.779	5317.43
263.154	5284.59
263.53	5297.41
263.905	5309.42
264.28	5339.85
264.655	5335.31
265.03	5310.76
265.405	5350.79
265.781	5398.28
266.156	5400.41
266.531	5430.28
266.906	5396.41
267.281	5488.91
267.655	5426.81
268.03	5434.01
268.405	5427.08
268.78	5468.92
269.155	5465.19
269.53	5467.33
269.904	5473.99
270.279	5504.09
270.654	5468.92
271.029	5489.18
271.403	5493.44
271.778	5493.17
272.152	5440.67
272.527	5435.07
272.901	5524.87
273.276	5475.05
273.65	5535.26
274.025	5522.21
274.399	5481.18
274.774	5533.39
275.148	5553.36
275.522	5517.95
275.897	5538.45
276.271	5492.64
276.645	5513.15
277.019	5556.83
277.393	5599.15
277.768	5571.47
278.142	5503.3
278.516	5506.23
278.89	5527
279.264	5484.11
279.638	5563.21
280.012	5546.44
280.386	5499.3
280.76	5505.96
281.133	5503.3
281.507	5531
281.881	5493.44
282.255	5458.8
282.629	5475.59
283.002	5472.92
283.376	5438.27
283.75	5412.94
284.123	5424.41
284.497	5418.81
284.87	5469.99
285.244	5409.48
285.618	5430.01
285.991	5365.73
286.364	5350.26
286.738	5300.61
287.111	5305.42
287.485	5266.7
287.858	5215.94
288.231	5237.58
288.605	5210.86
288.978	5258.42
289.351	5181.2
289.724	5136
290.097	5133.33
290.47	5074.47
290.843	5072.06
291.217	5030.03
291.59	4926.07
291.963	5012.35
292.336	4938.67
292.708	4919.1
293.081	4937.06
293.454	4876.99
293.827	4844.8
294.2	4752.71
294.573	4825.47
294.945	4710.79
295.318	4719.12
295.691	4640.89
296.064	4661.33
296.436	4641.7
296.809	4590.85
297.181	4542.93
297.554	4554.24
297.926	4537.28
298.299	4446.21
298.671	4488.52
299.044	4422.76
299.416	4400.91
299.788	4464.54
300.161	4356.94
300.533	4338.05
300.905	4417.63
301.278	4326.71
301.65	4280.54
302.022	4298.63
302.394	4250.55
302.766	4235.69
303.138	4172.7
303.51	4205.15
303.882	4273.79
304.254	4234.07
304.626	4153.5
304.998	4221.64
305.37	4095.05
305.742	4170.54
306.114	4155.94
306.485	4164.59
306.857	4168.11
307.229	4146.74
307.601	4123.2
307.972	4038.46
308.344	4084.77
308.716	3986.98
309.087	4023.56
309.459	3961.23
309.83	4001.08
310.202	3944.15
310.573	3955.81
310.945	3957.44
311.316	3928.69
311.687	3955.27
312.059	3942.52
312.43	3905.09
312.801	3957.17
313.172	3952.29
313.544	3983.46
313.915	4088.29
314.286	4144.57
314.657	4202.45
315.028	4347.76
315.399	4476.4
315.77	4539.7
316.141	4694.67
316.512	4857.94
316.883	4959.84
317.254	5108.18
317.625	5199.37
317.996	5304.62
318.366	5419.08
318.737	5536.59
319.108	5671.5
319.478	5754.96
319.849	5796.13
320.22	5869.13
320.59	5948.18
320.961	5964.61
321.331	6078.8
321.702	6091.24
322.072	6137.56
322.443	6204.75
322.813	6316.01
323.184	6360.64
323.554	6368.3
323.924	6476.21
324.295	6512.07
324.665	6478.06
325.035	6608.5
325.405	6598.5
325.775	6616.14
326.145	6606.66
326.515	6680.11
326.886	6616.93
327.256	6562.93
327.626	6536.85
327.995	6368.03
328.365	6312.05
328.735	6121.16
329.105	6011.79
329.475	5918.48
329.845	6026.89
330.215	6187.56
330.584	6335.82
330.954	6544.22
331.324	6718.53
331.693	6675.11
332.063	6628.25
332.432	6537.9
332.802	6272.95
333.171	6052.85
333.541	5876.83
333.91	5829.06
334.28	5701.28
334.649	5611.12
335.018	5601.28
335.388	5546.17
335.757	5468.92
336.126	5341.45
336.495	5365.73
336.865	5285.39
337.234	5188.95
337.603	5203.92
337.972	5193.49
338.341	5190.82
338.71	5233.84
339.079	5170.5
339.448	5225.83
339.817	5199.64
340.186	5266.97
340.554	5287.53
340.923	5313.96
341.292	5325.17
341.661	5427.88
342.029	5534.99
342.398	5554.43
342.767	5615.91
343.135	5813.39
343.504	5855.34
343.872	6007.28
344.241	6111.36
344.609	6188.09
344.978	6308.35
345.346	6448.52
345.715	6564.78
346.083	6672.74
346.451	6836.58
346.82	6934.01
347.188	7137
347.556	7129.4
347.924	7297.75
348.292	7394.76
348.66	7600.52
349.028	7609.13
349.396	7758.76
349.764	7926.39
350.132	8075.86
350.5	8191.39
350.868	8262.47
351.236	8330.14
351.604	8454.75
351.972	8569.13
352.34	8564.47
352.707	8755.23
353.075	8842.49
353.443	8850.23
353.81	8942.84
354.178	9021.98
354.545	9237.75
354.913	9203.27
355.28	9291.25
355.648	9357.07
356.015	9526.59
356.383	9604.35
356.75	9590.24
357.117	9664.11
357.485	9783.29
357.852	9779.19
358.219	9949.2
358.586	9941.78
358.954	9924.38
359.321	9976.07
359.688	10094.21
360.055	10149.41
360.422	10196.16
360.789	10124.88
361.156	10283.24
361.523	10209.7
361.89	10243.66
362.256	10427.65
362.623	10330.2
362.99	10400.36
363.357	10437.85
363.724	10490.37
364.09	10485.78
364.457	10527.32
364.823	10656.98
365.19	10603.5
365.557	10711.45
365.923	10805.85
366.29	10672.51
366.656	10832.81
367.022	10892.31
367.389	10839.93
367.755	10817.8
368.121	10905.78
368.488	10955.85
368.854	10853.91
369.22	10797.96
369.586	10854.68
369.952	10784.99
370.318	10742.5
370.684	10688.54
371.051	10835.1
371.416	10709.93
371.782	10767.94
372.148	10798.22
372.514	10773.29
372.88	10782.7
373.246	10771
373.612	10906.54
373.977	10922.81
374.343	10984.3
374.709	11124.48
375.074	11030.28
375.44	11060.25
375.806	10883.66
376.171	11002.59
376.537	10997.26
376.902	11032.31
377.268	11116.1
377.633	11210
377.998	11279.75
378.364	11432.58
378.729	11535.66
379.094	11524.52
379.459	11226.23
379.825	11163.82
380.19	11286.85
380.555	11103.16
380.92	10955.59
381.285	10885.19
381.65	10954.57
382.015	10993.96
382.38	11020.88
382.745	10870.7
383.11	10849.59
383.474	10913.66
383.839	10820.35
384.204	10873.49
384.569	10789.82
384.933	10761.08
385.298	10683.71
385.663	10738.43
386.027	10842.47
386.392	10857.47
386.756	11063.55
387.121	11121.69
387.485	11283.04
387.849	11351.24
388.214	11169.4
388.578	11140.72
388.942	10985.06
389.307	10939.33
389.671	10945.68
390.035	10905.52
390.399	11053.14
390.763	11174.98
391.127	11261.23
391.492	11565.28
391.856	11842.98
392.219	12108.63
392.583	12132.1
392.947	11852.84
393.311	11447.28
393.675	11329.69
394.039	11226.23
394.403	11244.24
394.766	11123.97
395.13	11089.45
395.494	11092.75
395.857	11174.48
396.221	11287.61
396.584	11495.14
396.948	11705.2
397.311	12104.6
397.675	12231.72
398.038	12407.89
398.401	12106.11
398.765	11826.05
399.128	11570.09
399.491	11286.09
399.854	11240.44
400.218	11157.73
400.581	11124.99
400.944	11093
401.307	10878.83
401.67	10941.11
402.033	10799.24
402.396	10830.77
402.759	10921.79
403.122	10916.2
403.485	10991.92
403.847	11135.14
404.21	11359.86
404.573	11452.59
404.936	11505.27
405.298	11384.44
405.661	11023.93
406.023	10815.77
406.386	10649.85
406.749	10597.64
407.111	10640.17
407.473	10814.24
407.836	10967.03
408.198	11186.91
408.561	11112.8
408.923	11117.37
409.285	11098.84
409.647	11027.23
410.009	10779.14
410.372	10762.6
410.734	10705.85
411.096	10777.61
411.458	10846.79
411.82	10894.59
412.182	11065.83
412.544	11067.36
412.906	11080.56
413.267	11130.57
413.629	10960.67
413.991	10858.24
414.353	10852.39
414.714	10651.88
415.076	10603.5
415.438	10648.83
415.799	10759.29
416.161	10599.68
416.522	10527.32
416.884	10416.42
417.245	10442.18
417.607	10412.6
417.968	10435.55
418.329	10576.75
418.691	10505.15
419.052	10663.09
419.413	10715.78
419.774	10866.12
420.135	11183.1
420.497	11633.61
420.858	12121.25
421.219	12072.04
421.58	11991.52
421.941	11600.97
422.302	11131.59
422.662	11104.43
423.023	10862.31
423.384	10810.68
423.745	10871.2
424.106	10901.46
424.466	11121.94
424.827	10921.54
425.187	10633.04
425.548	10385.31
425.909	10199.74
426.269	10297.02
426.63	10387.6
426.99	10659.27
427.35	10613.18
427.711	10621.33
428.071	10785.24
428.431	11068.63
428.792	11864.72
429.152	12650.06
429.512	12920.82
429.872	12774.81
430.232	12523.98
430.592	12026.36
430.952	11230.8
431.312	10776.85
431.672	10299.57
432.032	10299.57
432.392	10426.88
432.752	11276.96
433.111	12030.14
433.471	12165.9
433.831	11353.77
434.19	11080.05
434.55	11020.88
434.91	10838.15
435.269	11020.12
435.629	11068.63
435.988	11201.63
436.348	11097.06
436.707	10645.26
437.066	10631.26
437.426	10676.58
437.785	10856.71
438.144	10961.44
438.503	10829.5
438.862	10693.89
439.222	10535.99
439.581	10396.02
439.94	10501.58
440.299	11077.01
440.658	11813.67
441.017	12094.25
441.376	11948.59
441.734	11639.43
442.093	11485.52
442.452	11623.49
442.811	11738.08
443.169	11808.61
443.528	11531.35
443.887	11316.26
444.245	11289.89
444.604	11115.85
444.962	10908.83
445.321	10784.23
445.679	10967.53
446.038	11137.42
446.396	10984.3
446.754	10581.59
447.112	10516.36
447.471	10444.48
447.829	10221.7
448.187	10298.81
448.545	10325.09
448.903	10385.05
449.261	10342.45
449.619	10138.42
449.977	10126.41
450.335	9856.29
450.693	9786.11
451.051	9803.78
451.409	9676.93
451.766	9737.42
452.124	9520.69
452.482	9319.28
452.839	9126.31
453.197	8943.36
453.555	8878.61
453.912	8952.38
454.27	9110.86
454.627	9328.53
454.984	9492.19
455.342	9322.88
455.699	9003.68
456.056	9065.53
456.414	9259.88
456.771	9450.08
457.128	9527.36
457.485	9726.92
457.842	9634.1
458.199	9698.46
458.556	9789.95
458.913	9720.76
459.27	9913.63
459.627	9714.36
459.984	9737.42
460.341	9871.39
460.697	9698.21
461.054	9301.02
461.411	8771.49
461.767	8491.25
462.124	8452.16
462.481	8676.43
462.837	8890.48
463.194	9373
463.55	9245.47
463.907	9618.2
464.263	9881.63
464.619	10342.7
464.976	10604.52
465.332	10849.59
465.688	10449.83
466.044	9683.85
466.4	9333.93
466.756	9047.23
467.112	8985.9
467.468	9026.88
467.824	9008.84
468.18	8742.57
468.536	8784.41
468.892	8436.62
469.248	8339.73
469.604	8170.63
469.959	8171.15
470.315	8221.49
470.671	8245.61
471.026	8349.06
471.382	8459.66
471.737	8667.64
472.093	8845.33
472.448	9057.28
472.804	9404.09
473.159	9597.93
473.514	9582.03
473.87	9627.95
474.225	10088.33
474.58	10587.96
474.935	10740.21
475.29	10572.17
475.645	10370.77
476	10183.39
476.355	10130.5
476.71	9986.04
477.065	10425.86
477.42	10784.48
477.775	10956.61
478.13	10803.56
478.485	10888.75
478.839	11009.96
479.194	11464.75
479.549	11879.37
479.903	12065.48
480.258	11842.48
480.612	11974.34
480.967	12452.73
481.321	12665.16
481.675	12320.46
482.03	11854.36
482.384	11560.47
482.738	11727.71
483.093	11815.69
483.447	12243.83
483.801	12965.03
484.155	13503.06
484.509	15256.69
484.863	30842.77
485.217	43833
485.571	49028.57
485.925	35540.73
486.279	23437.97
486.632	17820.4
486.986	15390.2
487.34	13691.36
487.694	12563.5
488.047	12181.04
488.401	12255.43
488.754	12169.69
489.108	11859.41
489.461	11713.55
489.815	11394.07
490.168	11638.16
490.522	11715.57
490.875	11664.73
491.228	11612.1
491.581	11648.28
491.935	11689.01
492.288	11548.57
492.641	11748.95
492.994	11675.61
493.347	11940.76
493.7	11962.48
494.053	11972.58
494.406	11773.98
494.759	11219.64
495.111	11446.01
495.464	12399.83
495.817	13316.35
496.169	13017.02
496.522	12080.62
496.875	11027.23
497.227	10679.38
497.58	10565.29
497.932	10844.51
498.285	10902.73
498.637	11517.43
498.989	11860.42
499.342	11905.65
499.694	11512.11
500.046	11069.14
500.398	11461.97
500.751	11761.34
501.103	11864.46
501.455	11911.46
501.807	11896.8
502.159	11879.37
502.511	11851.32
502.862	11817.71
503.214	11613.37
503.566	11162.3
503.918	10830.52
504.27	10789.31
504.621	10784.23
504.973	10670.47
505.324	10735.63
505.676	10999.04
506.027	11162.8
506.379	10685.23
506.73	10086.54
507.082	10032.34
507.433	10428.92
507.784	10771.51
508.136	10567.32
508.487	10413.62
508.838	10012.39
509.189	10006.51
509.54	10190.29
509.891	10145.07
510.242	10058.93
510.593	9952.78
510.944	9830.17
511.295	9590.49
511.646	9287.65
511.996	9237.24
512.347	9402.81
512.698	9506.31
513.049	9479.1
513.399	9161.84
513.75	9253.96
514.1	9138.92
514.451	8791.64
514.801	8598.61
515.152	8714.41
515.502	9028.17
515.852	9278.39
516.202	9248.04
516.553	9146.65
516.903	8832.94
517.253	8634.55
517.603	8360.72
517.953	8492.8
518.303	8785.95
518.653	9112.4
519.003	9110.34
519.353	8555.94
519.703	8158.17
520.052	7948.5
520.402	8020.77
520.752	8261.18
521.102	8175.56
521.451	7943.04
521.801	7940.7
522.15	8000.76
522.5	8221.23
522.849	8213.71
523.199	8323.4
523.548	8530.32
523.897	8442.83
524.246	8249.51
524.596	7958.9
524.945	7934.98
525.294	7981.26
525.643	8009.6
525.992	8044.42
526.341	8076.64
526.69	8047.54
527.039	7925.87
527.388	7712.12
527.737	8068.84
528.086	8680.3
528.434	9169.56
528.783	9003.42
529.132	8626.28
529.48	8283.74
529.829	8085.73
530.177	8034.81
530.526	7903.24
530.874	8017.65
531.223	8041.56
531.571	7967.48
531.919	7988.02
532.268	8338.44
532.616	8969.14
532.964	9399.98
533.312	9482.69
533.66	9374.8
534.008	9319.79
534.356	9349.36
534.704	9302.05
535.052	9066.04
535.4	8743.34
535.748	8271.29
536.095	7900.9
536.443	7712.9
536.791	7971.9
537.139	8330.14
537.486	8798.86
537.834	9032.29
538.181	9070.16
538.529	9045.17
538.876	8995.18
539.223	8872.16
539.571	8544.3
539.918	8410.72
540.265	8642.31
540.613	8984.87
540.96	8922.47
541.307	8815.64
541.654	8711.31
542.001	8852.55
542.348	8793.18
542.695	8790.34
543.042	8925.05
543.388	9181.14
543.735	9274.02
544.082	9298.97
544.429	9334.19
544.775	9016.05
545.122	8508.33
545.469	8031.17
545.815	8076.12
546.162	8279.85
546.508	8525.15
546.854	9028.17
547.201	9850.14
547.547	10192.33
547.893	9892.13
548.24	9068.36
548.586	8067.8
548.932	7818.4
549.278	7713.95
549.624	7861.61
549.97	7853.28
550.316	7461.91
550.662	7233.11
551.008	7720.98
551.353	8828.29
551.699	9469.6
552.045	9278.65
552.391	8654.46
552.736	8470.02
553.082	8363.57
553.427	8290.74
553.773	7754.59
554.118	7527.98
554.464	7845.21
554.809	8435.84
555.154	8993.11
555.5	9073.51
555.845	8440.76
556.19	7911.31
556.535	7508.14
556.88	7653.47
557.225	7780.38
557.57	7572.09
557.915	7223.43
558.26	6918.79
558.605	6966.56
558.95	7144.08
559.295	7890.75
559.639	8657.04
559.984	9429.27
560.329	9656.16
560.673	9584.85
561.018	9131.46
561.362	8687.8
561.707	8131.43
562.051	8199.44
562.395	8373.16
562.74	8818.48
563.084	9063.72
563.428	9427.73
563.772	9458.81
564.117	9530.96
564.461	9613.84
564.805	9455.98
565.149	9432.87
565.493	9527.11
565.836	9754.59
566.18	10003.18
566.524	11199.09
566.868	12300.55
567.212	12744.89
567.555	12966.04
567.899	13978.75
568.242	15394.18
568.586	17321.95
568.929	19834.92
569.273	22482.82
569.616	22938.83
569.96	23394.29
570.303	24747.77
570.646	25562.25
570.989	27003.45
571.333	26983.07
571.676	25571.08
572.019	21427.33
572.362	22431.52
572.705	26415.19
573.048	30276.76
573.391	32354.92
573.733	33507.41
574.076	34370.4
574.419	33063.8
574.762	29517.18
575.104	25826.82
575.447	24672.44
575.789	28045.6
576.132	32729.03
576.474	33364.12
576.817	38439.99
577.159	44281.3
577.501	45949.65
577.844	40270.8
578.186	30886.83
578.528	26785.9
578.87	26794.01
579.212	28470.94
579.554	31534.85
579.896	31109.62
580.238	33385.58
580.58	44797.43
580.922	52436.65
581.264	56421.56
581.606	48180.21
581.947	41377.35
582.289	32895.42
582.631	26093.13
582.972	22272.95
583.314	22783.97
583.655	24289.17
583.997	28993.73
584.338	34670.29
584.679	38501.17
585.021	37806.87
585.362	31991.01
585.703	27333.74
586.044	25311.19
586.385	28781.84
586.726	32511.89
587.067	31563.91
587.408	27512.54
587.749	24801.51
588.09	22729.24
588.431	20534.98
588.772	18348.89
589.113	18967.98
589.453	19613.24
589.794	18829.04
590.134	16774.13
590.475	15680.89
590.815	15771.02
591.156	16164.25
591.496	16325.62
591.837	21854.12
592.177	27476.68
592.517	31376.76
592.857	28533.6
593.198	24850.1
593.538	20064.65
593.878	18073.12
594.218	19049.26
594.558	21453.86
594.898	20792.79
595.237	18700.42
595.577	16030.33
595.917	14210.6
596.257	15155.95
596.596	16225.48
596.936	17641.64
597.276	16007.26
597.615	15923.65
597.955	20164.98
598.294	24318.86
598.633	24928.87
598.973	22600.88
599.312	22046.12
599.651	22270.25
599.991	21165.5
600.33	20545.06
600.669	19291.06
601.008	18294.39
601.347	16743.93
601.686	17513.94
602.025	17545.56
602.364	19336.36
602.702	20141.38
603.041	20283.99
603.38	18454.92
603.719	16846.39
604.057	15479.68
604.396	15506.27
604.734	16543.88
605.073	20316.69
605.411	20225.96
605.75	19010.34
606.088	16498.3
606.426	17022.04
606.764	17846.32
607.103	17319.97
607.441	15776.48
607.779	14795.97
608.117	15158.69
608.455	14241.56
608.793	13407.35
609.131	15185.8
609.469	16656.05
609.806	16635.5
610.144	14060.48
610.482	13188.69
610.819	13550.9
611.157	13531.62
611.495	12602.26
611.832	12378.92
612.17	12426.28
612.507	13062.96
612.844	12781.09
613.182	12626.42
613.519	12757.96
613.856	12900.97
614.193	13037.1
614.53	13698.37
614.867	13992
615.205	12771.54
615.541	11704.44
615.878	10452.63
616.215	10808.14
616.552	10657.23
616.889	11118.64
617.226	11599.19
617.562	11054.66
617.899	9742.29
618.235	8691.42
618.572	7970.6
618.908	8468.21
619.245	9317.99
619.581	9900.58
619.918	8848.42
620.254	6631.68
620.59	6003.31
620.926	6975.48
621.262	8178.68
621.599	8358.39
621.935	8205.66
622.271	8966.82
622.606	9473.45
622.942	9233.89
623.278	8389.22
623.614	8984.87
623.95	9553.54
624.285	9194.01
624.621	8242.24
624.957	7582.26
625.292	7245.16
625.628	6779.8
625.963	6506.27
626.299	6882.81
626.634	7146.7
626.969	7117.88
627.304	6102.89
627.64	5060.82
627.975	5155.53
628.31	5781.53
628.645	6414.75
628.98	6121.95
629.315	5914.76
629.65	5692.77
629.985	5732.11
630.319	5330.24
630.654	5052.52
630.989	5229.57
631.323	5015.83
631.658	4710.79
631.993	4335.08
632.327	4187.04
632.662	4234.88
632.996	4499.3
633.33	4636.05
633.665	4418.71
633.999	4084.77
634.333	4009.21
634.667	3985.09
635.001	4224.61
635.335	4554.78
635.669	4959.57
636.003	4950.73
636.337	4448.64
636.671	4015.44
637.005	3683.69
637.339	3717.96
637.672	4003.24
638.006	4308.08
638.339	4258.39
638.673	3988.88
639.006	3708.17
639.34	3646.96
639.673	3573.18
640.007	3615.12
640.34	3517.32
640.673	3448.6
641.006	3320.28
641.34	3225.14
641.673	3121.94
642.006	2990.9
642.339	3128.79
642.672	3236.9
643.004	3152.62
643.337	2970.6
643.67	2912.4
644.003	3017.79
644.336	3013.67
644.668	3008.74
645.001	2969.23
645.333	2825.01
645.666	2728.72
645.998	2536.07
646.331	2494.38
646.663	2529.44
646.995	2780.46
647.327	3357.16
647.66	3841.31
647.992	3972.35
648.324	4021.67
648.656	3871.17
648.988	3608.31
649.32	3171.51
649.652	2824.46
649.983	2618.53
650.315	2630.66
650.647	2715.23
650.979	3080.3
651.31	3308.53
651.642	3533.13
651.973	3514.59
652.305	3556.56
652.636	3430.6
652.967	3280.38
653.299	3063.3
653.63	3051.24
653.961	3494.97
654.292	5084.64
654.623	30550.88
654.955	68922.24
655.286	68922.24
655.616	68922.24
655.947	68922.24
656.278	68922.24
656.609	29133.61
656.94	15165.65
657.27	10270.73
657.601	8148.05
657.932	6263.17
658.262	4714.82
658.593	3682.06
658.923	2911.3
659.254	2556.48
659.584	2323.28
659.914	2206.13
660.244	2131.82
660.575	2155.95
660.905	2204.19
661.235	2222.76
661.565	2264.04
661.895	2311.38
662.225	2226.64
662.555	2204.47
662.884	2198.1
663.214	2279.54
663.544	2359.8
663.873	2410.12
664.203	2453.51
664.533	2608.33
664.862	2684.39
665.192	2512.88
665.521	2303.91
665.85	2122.11
666.18	1941.55
666.509	1959.34
666.838	2061.05
667.167	2109.62
667.496	2097.69
667.825	2088.53
668.154	2033.27
668.483	2109.62
668.812	2170.1
669.141	2294.49
669.47	2329.64
669.798	2286.19
670.127	2199.76
670.456	2368.65
670.784	2975.81
671.113	3556.83
671.441	4074.21
671.77	3968.28
672.098	3673.36
672.426	2971.97
672.755	2451.85
673.083	2407.64
673.411	2396.02
673.739	2436.38
674.067	2178.41
674.395	2182.02
674.723	2246.59
675.051	2405.7
675.379	2371.97
675.706	2379.71
676.034	2285.91
676.362	2188.39
676.689	2397.68
677.017	2862.67
677.344	3177.8
677.672	3132.62
677.999	2968.4
678.327	3026.84
678.654	3258.24
678.981	3559.29
679.308	3531.22
679.636	3269.72
679.963	2925.03
680.29	2757.35
680.617	2903.33
680.944	3056.72
681.271	2987.06
681.597	2585.72
681.924	2251.57
682.251	2148.74
682.578	2459.03
682.904	2844.53
683.231	3107.42
683.557	3269.45
683.884	3429.5
684.21	3638.8
684.536	3872.8
684.863	4015.71
685.189	3923.54
685.515	3560.38
685.841	3216.39
686.167	3112.9
686.493	3310.45
686.819	3291.04
687.145	3060.84
687.471	2571.66
687.797	2375.84
688.123	2404.87
688.448	2589.86
688.774	2834.91
689.1	2770.01
689.425	2527.23
689.751	2468.15
690.076	2643.62
690.402	3109.89
690.727	3329.03
691.052	3264.25
691.377	2970.6
691.703	2798.34
692.028	2794.21
692.353	2950.84
692.678	2930.25
693.003	2849.75
693.328	2412.06
693.652	2109.07
693.977	2102.69
694.302	2434.72
694.627	2671.72
694.951	2490.24
695.276	2087.7
695.6	1901.77
695.925	2353.16
696.249	3195.87
696.574	3725.3
696.898	3544.03
697.222	3007.64
697.546	2703.67
697.871	2582.69
698.195	2581.31
698.519	2455.17
698.843	2344.03
699.167	2156.79
699.491	1996.87
699.814	1935.71
700.138	1971.3
700.462	1951.84
700.786	1902.6
701.109	2023.83
701.433	2219.44
701.756	2373.63
702.08	2420.9
702.403	2311.66
702.726	2112.68
703.05	1985.2
703.373	1938.77
703.696	1946.55
704.019	1852.22
704.342	1715.93
704.665	1559.27
704.988	1586.94
705.311	1782.57
705.634	2136.54
705.957	2691.28
706.28	3163.84
706.602	3352.25
706.925	3165.76
707.247	2965.66
707.57	2662.08
707.892	2494.11
708.215	2324.94
708.537	2086.87
708.859	2031.88
709.182	2117.12
709.504	2274.56
709.826	2336.84
710.148	2346.24
710.47	2220.55
710.792	2090.2
711.114	1944.61
711.436	1809.88
711.758	1839.13
712.079	1908.17
712.401	2147.08
712.723	2261.82
713.044	2563.66
713.366	2678.88
713.687	2688.8
714.009	2504.32
714.33	2378.05
714.652	2264.87
714.973	2134.32
715.294	1905.94
715.615	1698.91
715.936	1613.76
716.257	1592.25
716.578	1586.38
716.899	1678.26
717.22	1927.64
717.541	2022.72
717.862	2071.87
718.182	2034.11
718.503	2128.49
718.824	2117.12
719.144	2048.27
719.465	1902.04
719.785	1934.59
720.105	1991.31
720.426	2104.63
720.746	2056.88
721.066	1961.01
721.386	1970.74
721.706	1870.31
722.026	1752.18
722.346	1749.12
722.666	1794.28
722.986	1898.43
723.306	1853.61
723.626	1797.34
723.946	1781.18
724.265	1964.91
724.585	2170.1
724.904	2288.13
725.224	2313.87
725.543	2242.99
725.863	2215.28
726.182	2057.71
726.501	1971.02
726.82	1919.85
727.14	2043.27
727.459	2211.95
727.778	2229.41
728.097	2191.44
728.416	2165.1
728.734	2357.03
729.053	2473.95
729.372	2423.67
729.691	2479.75
730.009	2786.24
730.328	3025.19
730.647	3096.46
730.965	2850.03
731.283	2627.91
731.602	2479.2
731.92	2578
732.238	2707.25
732.557	2819.24
732.875	2876.96
733.193	3252.77
733.511	3481.06
733.829	3361.53
734.147	2953.03
734.465	2555.1
734.782	2618.81
735.1	2728.17
735.418	2792.29
735.735	2768.63
736.053	2788.44
736.371	2784.86
736.688	2588.76
737.005	2330.47
737.323	2118.23
737.64	2062.99
737.957	2294.77
738.274	2749.92
738.592	3007.36
738.909	2925.03
739.226	2439.69
739.543	2046.33
739.86	1841.08
740.176	1742.43
740.493	1630.52
740.81	1560.1
741.127	1633.59
741.443	1835.51
741.76	2043.27
742.076	1986.87
742.393	1843.58
742.709	1641.97
743.025	1557.31
743.342	1559.55
743.658	1602.02
743.974	1729.04
744.29	1756.65
744.606	1705.61
744.922	1674.07
745.238	1680.49
745.554	1617.39
745.87	1559.82
746.186	1625.49
746.501	1839.41
746.817	1828.82
747.132	1596.16
747.448	1408.43
747.763	1380.42
748.079	1552.56
748.394	1811.27
748.71	2089.09
749.025	2362.84
749.34	2461.52
749.655	2349.29
749.97	2174.81
750.285	2057.44
750.6	2177.58
750.915	2302.25
751.23	2256.01
751.545	2092.14
751.859	1915.4
752.174	1807.37
752.489	2025.22
752.803	2294.49
753.118	2407.91
753.432	2252.68
753.747	2028.55
754.061	2130.99
754.375	2311.66
754.689	2490.24
755.004	2549.03
755.318	2613.02
755.632	2861.57
755.946	3076.46
756.26	3241.28
756.573	3570.18
756.887	3829.1
757.201	3701.37
757.515	3078.65
757.828	2588.21
758.142	2545.72
758.455	2939.86
758.769	3383.92
759.082	3559.29
759.396	3706.27
759.709	3739.17
760.022	3757.65
760.335	3456.51
760.648	2884.1
760.962	2462.9
761.275	2196.99
761.587	2142.09
761.9	2194.22
762.213	2331.03
762.526	2561.17
762.839	2592.62
763.151	2701.74
763.464	3012.85
763.776	3542.39
764.089	3773.68
764.401	3504.78
764.714	3101.4
765.026	2650.78
765.338	2308.06
765.65	1988.54
765.962	1790.1
766.275	1651.74
766.587	1621.3
766.898	1758.32
767.21	2033.83
767.522	2395.75
767.834	2694.03
768.146	2617.16
768.457	2350.12
768.769	2043.83
769.08	1951.28
769.392	2147.08
769.703	2441.63
770.015	2628.73
770.326	2630.11
770.637	2492.45
770.948	2119.34
771.26	1772.82
771.571	1774.21
771.882	1886.74
772.193	1908.72
772.504	1815.73
772.814	1688.86
773.125	1676.31
773.436	1547.52
773.747	1485.43
774.057	1393.02
774.368	1404.51
774.678	1360.8
774.989	1250.55
775.299	1226.13
775.609	1226.13
775.919	1238.48
776.23	1313.13
776.54	1290.41
776.85	1311.45
777.16	1280.02
777.47	1507.25
777.78	1653.69
778.089	1795.67
778.399	1817.96
778.709	1666.26
779.019	1480.95
779.328	1300.23
779.638	1301.63
779.947	1513.4
780.257	1907.61
780.566	2124.61
780.875	1938.77
781.185	1737.68
781.494	1624.37
781.803	1569.33
782.112	1491.02
782.421	1579.39
782.73	1633.31
783.039	1668.77
783.348	1404.51
783.656	1223.04
783.965	1207.31
784.274	1313.41
784.582	1421.32
784.891	1459.68
785.199	1374.81
785.508	1294.05
785.816	1227.25
786.124	1336.97
786.432	1485.71
786.741	1616.83
787.049	1619.62
787.357	1548.08
787.665	1518.72
787.973	1512.85
788.281	1478.99
788.588	1297.98
788.896	1145.77
789.204	1056.87
789.511	1065.32
789.819	1061.1
790.126	1050.68
790.434	1090.64
790.741	1098.24
791.049	1061.38
791.356	1030.97
791.663	946.73
791.97	995.49
792.277	1013.23
792.584	1114.84
792.891	1387.7
793.198	1614.04
793.505	1684.12
793.812	1584.42
794.119	1439.24
794.425	1414.04
794.732	1267.96
795.038	1054.06
795.345	879.05
795.651	790.67
795.958	816.94
796.264	913.46
796.57	1048.99
796.876	1111.18
797.183	1056.03
797.489	946.17
797.795	945.61
798.101	980.55
798.406	924.18
798.712	916.85
799.018	870.3
799.324	871.99
799.629	875.09
799.935	845.18
800.24	858.73
800.546	839.81
800.851	795.76
801.157	744.04
801.462	718.03
801.767	718.59
802.072	805.36
802.377	857.88
802.682	884.97
802.987	852.52
803.292	831.06
803.597	783.04
803.902	758.17
804.207	818.92
804.511	791.52
804.816	883
805.12	985.06
805.425	1075.73
805.729	1126.09
806.034	1023.65
806.338	914.03
806.642	865.78
806.946	866.35
807.251	894
807.555	909.23
807.859	915.15
808.162	887.79
808.466	821.74
808.77	813.27
809.074	761.85
809.378	751.67
809.681	759.59
809.985	770.89
810.288	751.11
810.592	740.65
810.895	698.51
811.198	675.03
811.502	677.86
811.805	630.59
812.108	655.22
812.411	712.09
812.714	825.13
813.017	871.71
813.32	903.87
813.623	810.73
813.926	726.79
814.228	683.52
814.531	632.29
814.833	638.23
815.136	615.01
815.438	619.83
815.741	667.11
816.043	674.46
816.345	686.35
816.648	733.3
816.95	660.31
817.252	684.93
817.554	642.76
817.856	602.27
818.158	607.08
818.46	635.97
818.761	619.54
819.063	625.49
819.365	654.65
819.666	705.58
819.968	731.32
820.269	752.24
820.571	721.14
820.872	678.99
821.173	624.93
821.475	595.47
821.776	611.61
822.077	614.45
822.378	626.34
822.679	581.02
822.98	614.73
823.281	590.65
823.581	579.32
823.882	600
824.183	595.75
824.483	605.67
824.784	628.89
825.084	657.48
825.385	630.59
825.685	586.4
825.985	587.82
826.286	605.38
826.586	637.67
826.886	627.76
827.186	632.85
827.486	597.74
827.786	570.82
828.086	569.12
828.386	587.82
828.685	607.93
828.985	595.47
829.285	576.49
829.584	563.73
829.884	545.31
830.183	527.16
830.482	535.1
830.782	510.72
831.081	532.55
831.38	514.69
831.679	527.73
831.978	531.7
832.277	550.98
832.576	556.08
832.875	549.56
833.174	557.5
833.472	543.89
833.771	568.83
834.07	564.3
834.368	550.7
834.667	541.06
834.965	549.56
835.263	537.65
835.562	540.49
835.86	527.73
836.158	520.93
836.456	508.73
836.754	497.67
837.052	493.41
837.35	490.29
837.648	507.6
837.946	493.7
838.243	527.73
838.541	533.69
838.839	537.94
839.136	495.97
839.434	503.06
839.731	491.71
840.028	491.14
840.326	503.34
840.623	510.15
840.92	499.94
841.217	535.1
841.514	501.07
841.811	512.42
842.108	498.23
842.405	476.96
842.701	489.44
842.998	502.77
843.295	494.26
843.591	495.68
843.888	499.09
844.184	503.62
844.481	482.06
844.777	491.99
845.073	479.51
845.369	502.77
845.665	518.66
845.962	482.35
846.258	492.84
846.553	486.04
846.849	482.63
847.145	476.39
847.441	492.84
847.737	488.02
848.032	484.62
848.328	515.82
848.623	496.53
848.919	475.82
849.214	487.74
849.509	488.59
849.805	491.14
850.1	455.67
850.395	510.43
850.69	486.6
850.985	474.97
851.28	469.58
851.575	489.44
851.869	466.74
852.164	481.21
852.459	512.98
852.753	525.75
853.048	545.59
853.342	512.7
853.637	528.3
853.931	511.85
854.225	484.9
854.52	514.4
854.814	511.57
855.108	526.6
855.402	505.33
855.696	511
855.99	530.57
856.283	485.75
856.577	510.43
856.871	472.98
857.164	495.97
857.458	489.72
857.751	503.91
858.045	482.91
858.338	493.41
858.632	502.49
858.925	510.43
859.218	484.62
859.511	491.14
859.804	487.17
860.097	492.28
860.39	483.2
860.683	484.05
860.976	510.43
861.268	468.44
861.561	472.42
861.854	471
862.146	487.45
862.439	477.81
862.731	482.63
863.023	495.4
863.316	487.74
863.608	493.13
863.9	478.66
864.192	496.82
864.484	486.89
864.776	483.2
865.068	449.71
865.36	472.98
865.651	472.98
865.943	453.97
866.235	489.72
866.526	472.98
866.818	471
867.109	461.63
867.4	459.64
867.692	471.56
867.983	480.93
868.274	475.25
868.565	470.14
868.856	487.74
869.147	471.28
869.438	473.27
869.729	458.79
870.02	489.44
870.31	466.74
870.601	499.94
870.892	469.86
871.182	438.64
871.473	485.75
871.763	482.06
872.053	471.56
872.343	470.71
872.634	469.58
872.924	457.94
873.214	454.53
873.504	463.9
873.794	469.58
874.084	461.35
874.373	464.19
874.663	450.28
874.953	479.79
875.242	501.64
875.532	467.02
875.821	493.41
876.111	476.1
876.4	453.4
876.689	465.04
876.978	463.9
877.268	457.09
877.557	470.71
877.846	465.32
878.134	461.06
878.423	461.06
878.712	461.06
