Data from FLMS007011_11-17-43-103.txt Node
Date: Thu Apr 21 11:17:43 MDT 2016
User: lab_user
Spectrometer: FLMS00701
Autoset integration time: false
Trigger mode: 0
Integration Time (sec): 5.000000E-3
Scans to average: 10
Electric dark correction enabled: true
Nonlinearity correction enabled: true
Boxcar width: 0
XAxis mode: Wavelengths
Stop averaging: false
Number of Pixels in Spectrum: 2048
>>>>>Begin Spectral Data<<<<<
178.41	38.26
178.791	38.26
179.172	38.26
179.553	-19.45
179.934	-22.87
180.316	-45.74
180.697	-60.61
181.078	-64.33
181.459	-73.19
181.84	-62.04
182.221	-40.31
182.602	-30.59
182.983	5.98
183.364	27.41
183.744	33.4
184.125	56.53
184.506	70.8
184.887	109.89
185.268	133.56
185.648	151.24
186.029	194.55
186.41	176.89
186.791	234.14
187.171	262.61
187.552	299.03
187.932	382.91
188.313	400.24
188.694	403.93
189.074	400.52
189.455	433.18
189.835	439.14
190.216	470.08
190.596	465.26
190.977	512.07
191.357	504.41
191.737	514.34
192.118	527.67
192.498	535.89
192.878	545.25
193.258	552.62
193.639	562.82
194.019	571.32
194.399	575.57
194.779	563.39
195.159	548.36
195.54	562.54
195.92	588.61
196.3	602.77
196.68	595.12
197.06	572.74
197.44	593.42
197.82	599.09
198.2	599.09
198.58	597.67
198.959	605.6
199.339	597.11
199.719	612.97
200.099	585.77
200.479	591.44
200.858	597.67
201.238	622.03
201.618	607.59
201.998	611.84
202.377	609.29
202.757	597.67
203.136	621.75
203.516	616.93
203.896	620.05
204.275	624.86
204.655	612.12
205.034	608.44
205.414	656.85
205.793	653.17
206.172	639.3
206.552	620.9
206.931	665.63
207.31	670.16
207.69	666.19
208.069	661.95
208.448	689.11
208.827	692.51
209.207	704.95
209.586	698.73
209.965	690.53
210.344	705.52
210.723	734.08
211.102	762.35
211.481	751.05
211.86	765.18
212.239	778.74
212.618	782.13
212.997	780.44
213.376	822.81
213.755	819.42
214.134	836.36
214.513	868.54
214.891	874.75
215.27	897.04
215.649	904.09
216.028	924.12
216.406	906.91
216.785	933.98
217.164	934.55
217.542	988.38
217.921	982.18
218.3	987.54
218.678	1035.14
219.057	1053.43
219.435	1056.53
219.814	1093.96
220.192	1120.68
220.57	1126.87
220.949	1143.74
221.327	1220.73
221.705	1213.43
222.084	1198.26
222.462	1286.98
222.84	1303.81
223.218	1320.64
223.597	1367.46
223.975	1384.56
224.353	1433.58
224.731	1490.12
225.109	1502.15
225.487	1511.38
225.865	1577.93
226.243	1622.63
226.621	1682.66
226.999	1699.41
227.377	1800.62
227.755	1778.89
228.133	1869.14
228.511	1899.76
228.889	1937.31
229.266	2002.09
229.644	2013.48
230.022	2103.46
230.4	2100.68
230.777	2164.49
231.155	2203.3
231.533	2244.86
231.91	2316.58
232.288	2412.55
232.665	2435.49
233.043	2459.52
233.42	2518.62
233.798	2586.49
234.175	2640.52
234.553	2678.27
234.93	2735.55
235.307	2785.08
235.685	2816.7
236.062	2847.22
236.439	2893.93
236.816	3010.05
237.194	3015.26
237.571	3098.32
237.948	3142.97
238.325	3192.52
238.702	3215.23
239.079	3288.25
239.456	3380.59
239.833	3436.27
240.21	3507.45
240.587	3562.22
240.964	3571.21
241.341	3625.67
241.718	3731.49
242.095	3715.45
242.472	3802.69
242.849	3805.68
243.225	3911
243.602	3954.39
243.979	3956.56
244.356	4081.46
244.732	4099.33
245.109	4156.15
245.486	4199.41
245.862	4283.45
246.239	4322.33
246.615	4329.89
246.992	4403.28
247.368	4463.67
247.745	4536.68
248.121	4594.02
248.497	4581.64
248.874	4677.67
249.25	4711.27
249.626	4807.16
250.003	4828.63
250.379	4905.36
250.755	4985.5
251.131	4990.33
251.507	5044.16
251.884	5086.72
252.26	5113.74
252.636	5235.39
253.012	5202.79
253.388	5274.92
253.764	5348.87
254.14	5317.11
254.516	5381.68
254.892	5397.68
255.268	5475.26
255.643	5502.44
256.019	5610.26
256.395	5607.34
256.771	5660.54
257.147	5758.36
257.522	5706.8
257.898	5778.81
258.274	5794.48
258.649	5772.97
259.025	5899.85
259.4	5846.78
259.776	5908.08
260.151	5954.22
260.527	5945.47
260.902	6035.04
261.278	6052.26
261.653	6066.3
262.028	6050.41
262.404	6111.04
262.779	6105.22
263.154	6162.11
263.53	6218.18
263.905	6244.61
264.28	6233.78
264.655	6240.65
265.03	6207.34
265.405	6266.29
265.781	6293.5
266.156	6290.6
266.531	6383.29
266.906	6339.2
267.281	6366.92
267.655	6342.37
268.03	6319.65
268.405	6345.01
268.78	6424.45
269.155	6423.13
269.53	6403.34
269.904	6456.64
270.279	6447.67
270.654	6450.83
271.029	6392
271.403	6446.09
271.778	6452.68
272.152	6476.94
272.527	6474.31
272.901	6512.27
273.276	6481.16
273.65	6559.71
274.025	6534.15
274.399	6493.82
274.774	6529.14
275.148	6560.24
275.522	6536
275.897	6519.13
276.271	6595.28
276.645	6547.59
277.019	6587.11
277.393	6634.25
277.768	6578.68
278.142	6598.96
278.516	6581.32
278.89	6569.46
279.264	6576.05
279.638	6602.65
280.012	6630.3
280.386	6572.62
280.76	6557.6
281.133	6590.54
281.507	6597.91
281.881	6631.62
282.255	6530.2
282.629	6553.65
283.002	6545.75
283.376	6557.08
283.75	6532.04
284.123	6548.91
284.497	6529.67
284.87	6508.85
285.244	6534.15
285.618	6563.14
285.991	6438.7
286.364	6446.35
286.738	6400.44
287.111	6507
287.485	6457.43
287.858	6363.49
288.231	6349.23
288.605	6374.58
288.978	6385.13
289.351	6256.77
289.724	6248.05
290.097	6258.89
290.47	6190.15
290.843	6202.05
291.217	6166.61
291.59	6099.92
291.963	6089.33
292.336	6027.89
292.708	5998.75
293.081	6008.29
293.454	6003.52
293.827	5913.11
294.2	5889.51
294.573	5846.25
294.945	5804.31
295.318	5771.37
295.691	5790.76
296.064	5728.07
296.436	5659.48
296.809	5663.2
297.181	5658.41
297.554	5543.45
297.926	5586.31
298.299	5520.55
298.671	5587.11
299.044	5453.94
299.416	5455.81
299.788	5451.54
300.161	5379.81
300.533	5356.87
300.905	5367.01
301.278	5326.45
301.65	5316.84
302.022	5238.59
302.394	5267.18
302.766	5274.92
303.138	5180.07
303.51	5271.72
303.882	5261.03
304.254	5259.43
304.626	5203.32
304.998	5191.83
305.37	5175.25
305.742	5165.09
306.114	5097.42
306.485	5136.21
306.857	5136.21
307.229	5069.05
307.601	5061.56
307.972	5019.25
308.344	4923.59
308.716	4900.27
309.087	4903.48
309.459	4769.03
309.83	4788.37
310.202	4692.46
310.573	4565.76
310.945	4535.87
311.316	4435.1
311.687	4424.31
312.059	4271.29
312.43	4278.59
312.801	4265.35
313.172	4216.98
313.544	4235.9
313.915	4364.97
314.286	4304.51
314.657	4419.19
315.028	4526.98
315.399	4622.81
315.77	4817.09
316.141	4983.36
316.512	5264.24
316.883	5401.68
317.254	5697.23
317.625	5952.1
317.996	6303.28
318.366	6611.08
318.737	6933.43
319.108	7193.78
319.478	7529.75
319.849	7793.86
320.22	8154.22
320.59	8423.1
320.961	8648.46
321.331	8947.94
321.702	9097.67
322.072	9241.55
322.443	9501.38
322.813	9667.38
323.184	9769.4
323.554	9917.92
323.924	9942.49
324.295	9969.61
324.665	9973.2
325.035	10043.28
325.405	9888.74
325.775	9898.47
326.145	9836.51
326.515	9720.45
326.886	9620.96
327.256	9531.67
327.626	9402.24
327.995	9450.28
328.365	9446.42
328.735	9416.63
329.105	9395.04
329.475	9389.39
329.845	9281.94
330.215	9386.31
330.584	9790.92
330.954	10600.64
331.324	11420.37
331.693	12142.64
332.063	12634.66
332.432	13024.74
332.802	12969.5
333.171	12635.17
333.541	12248.81
333.91	12144.4
334.28	12195.36
334.649	12235.45
335.018	12166.35
335.388	12104.29
335.757	12135.32
336.126	11975.05
336.495	12066.69
336.865	11930.85
337.234	11795.66
337.603	11764.06
337.972	11777.72
338.341	11683.14
338.71	11630.77
339.079	11557.37
339.448	11480.15
339.817	11463.43
340.186	11325.84
340.554	11244.44
340.923	11150.31
341.292	10973.83
341.661	10986.53
342.029	10934.7
342.398	10808.08
342.767	10615.41
343.135	10606.75
343.504	10469.66
343.872	10360
344.241	10261.74
344.609	10122.01
344.978	9986.76
345.346	9967.31
345.715	9856.23
346.083	9719.43
346.451	9645.84
346.82	9506.77
347.188	9372.17
347.556	9216.08
347.924	9261.1
348.292	9008.01
348.66	8961.61
349.028	8833.91
349.396	8740.45
349.764	8699.37
350.132	8636.57
350.5	8539.58
350.868	8484.98
351.236	8432.16
351.604	8321.27
351.972	8237.52
352.34	8160.45
352.707	8122.81
353.075	8086.71
353.443	8041.24
353.81	7986.4
354.178	7899.28
354.545	8007.2
354.913	7928.16
355.28	7916.19
355.648	7914.63
356.015	7961.18
356.383	7955.2
356.75	7916.45
357.117	7925.82
357.485	7953.12
357.852	7941.94
358.219	8017.34
358.586	8008.24
358.954	8013.44
359.321	8040.72
359.688	8030.07
360.055	8040.46
360.422	8146.69
360.789	8090.86
361.156	8228.96
361.523	8214.43
361.89	8208.2
362.256	8300.53
362.623	8284.46
362.99	8293.01
363.357	8329.57
363.724	8375.95
364.09	8488.08
364.457	8487.82
364.823	8657.25
365.19	8700.4
365.557	8843.46
365.923	8906.42
366.29	8994.6
366.656	9159.46
367.022	9251.84
367.389	9276.28
367.755	9272.68
368.121	9436.66
368.488	9514.21
368.854	9577.35
369.22	9578.89
369.586	9600.7
369.952	9656.87
370.318	9698.92
370.684	9827.04
371.051	9862.63
371.416	9941.21
371.782	9961.43
372.148	10111.79
372.514	10099.52
372.88	10243.1
373.246	10228.29
373.612	10472.46
373.977	10485.47
374.343	10632.47
374.709	10799.94
375.074	10802.23
375.44	10845.72
375.806	10805.03
376.171	10835.29
376.537	11008.89
376.902	11079.49
377.268	11328.12
377.633	11423.66
377.998	11527.25
378.364	11772.15
378.729	11753.7
379.094	11859.86
379.459	11639.63
379.825	11666.7
380.19	11734.23
380.555	11587.24
380.92	11384.38
381.285	11532.82
381.65	11715.26
382.015	11724.11
382.38	11761.79
382.745	11679.09
383.11	11695.79
383.474	11686.17
383.839	11774.68
384.204	11813.61
384.569	11917.21
384.933	11886.39
385.298	11813.86
385.663	11940.2
386.027	12035.89
386.392	12155
386.756	12292.68
387.121	12418.42
387.485	12594.91
387.849	12797.63
388.214	12590.12
388.578	12471.3
388.942	12361.98
389.307	12417.16
389.671	12498.75
390.035	12566.72
390.399	12668.12
390.763	12821.51
391.127	13074.96
391.492	13469.44
391.856	13806.16
392.219	14129.13
392.583	14075.66
392.947	13674.54
393.311	13344.63
393.675	13288.47
394.039	13235.55
394.403	13227.27
394.766	13149.5
395.13	13211.22
395.494	13177.85
395.857	13315.8
396.221	13559.86
396.584	13860.93
396.948	14133.87
397.311	14697.24
397.675	14987.17
398.038	14956.3
398.401	14537.7
398.765	14224.28
399.128	13840.67
399.491	13751.62
399.854	13664.27
400.218	13776.64
400.581	13703.32
400.944	13633.48
401.307	13350.14
401.67	13499.5
402.033	13497.75
402.396	13517.29
402.759	13609.45
403.122	13722.84
403.485	13828.42
403.847	14066.42
404.21	14332.62
404.573	14545.18
404.936	14554.65
405.298	14341.61
405.661	13959.2
406.023	13673.03
406.386	13626.47
406.749	13574.89
407.111	13641.74
407.473	13956.45
407.836	14236.02
408.198	14458.63
408.561	14354.09
408.923	14475.84
409.285	14475.34
409.647	14284.45
410.009	14003.19
410.372	14076.91
410.734	13965.45
411.096	13968.45
411.458	14105.89
411.82	14431.94
412.182	14605.27
412.544	14560.39
412.906	14720.42
413.267	14723.41
413.629	14456.89
413.991	14371.56
414.353	14354.09
414.714	14120.63
415.076	14157.85
415.438	14237.26
415.799	14407.74
416.161	14072.91
416.522	14070.16
416.884	13982.45
417.245	14122.88
417.607	14130.37
417.968	14071.91
418.329	14238.01
418.691	14237.76
419.052	14318.15
419.413	14571.86
419.774	14826.06
420.135	15385.18
420.497	15907.22
420.858	16453.16
421.219	16532.68
421.58	16004.48
421.941	15643.58
422.302	15149.43
422.662	15127.53
423.023	14874.87
423.384	14930.65
423.745	15007.33
424.106	15065.57
424.466	15251.91
424.827	14920.45
425.187	14446.16
425.548	14262.73
425.909	14095.15
426.269	14354.09
426.63	14417.22
426.99	14795.17
427.35	14685.03
427.711	14813.35
428.071	15056.61
428.431	15674.87
428.792	16830.5
429.152	17888.23
429.512	18031.12
429.872	17771.96
430.232	17327.08
430.592	16431.12
430.952	15441.35
431.312	14840.25
431.672	14342.61
432.032	14393.76
432.392	14867.15
432.752	16367.94
433.111	17157.26
433.471	16865.39
433.831	15577.51
434.19	15539.25
434.55	15602.35
434.91	15234.75
435.269	15500
435.629	15717.09
435.988	15855.36
436.348	15551.18
436.707	14998.37
437.066	15009.57
437.426	15237.98
437.785	15374.24
438.144	15508.2
438.503	15222.31
438.862	15099.67
439.222	14873.88
439.581	14712.7
439.94	15085.73
440.299	16146.09
440.658	17175.55
441.017	17193.35
441.376	16862.67
441.734	16544.56
442.093	16318.38
442.452	16580.47
442.811	16866.63
443.169	16807.98
443.528	16223.94
443.887	16135.18
444.245	16247.24
444.604	15870.5
444.962	15650.04
445.321	15594.65
445.679	15755.82
446.038	15913.67
446.396	15599.37
446.754	15110.86
447.112	15045.66
447.471	14917.46
447.829	14649.14
448.187	14846.98
448.545	14961.28
448.903	14834.28
449.261	14733.63
449.619	14548.42
449.977	14481.83
450.335	14200.06
450.693	14133.37
451.051	14055.42
451.409	14056.92
451.766	13945.95
452.124	13718.08
452.482	13270.41
452.839	13070.69
453.197	12929.31
453.555	12887.1
453.912	12914.74
454.27	13323.07
454.627	13709.32
454.984	13612.2
455.342	13340.87
455.699	13031.27
456.056	13023.74
456.414	13407.04
456.771	13783.89
457.128	13939.95
457.485	14103.89
457.842	13895.19
458.199	14017.44
458.556	14277.71
458.913	14209.05
459.27	14434.93
459.627	13981.7
459.984	14118.88
460.341	14258.49
460.697	13841.68
461.054	13249.59
461.411	12601.2
461.767	12255.62
462.124	12326.2
462.481	12800.89
462.837	13056.63
463.194	13732.35
463.55	13402.78
463.907	14237.26
464.263	14599.78
464.619	15226.04
464.976	15611.79
465.332	15761.78
465.688	14818.83
466.044	13819.16
466.4	13409.05
466.756	13125.66
467.112	13129.67
467.468	13226.27
467.824	13007.92
468.18	12663.59
468.536	12643.22
468.892	12279.82
469.248	12168.87
469.604	11939.18
469.959	12039.68
470.315	12008.12
470.671	12029.83
471.026	12181.74
471.382	12439.82
471.737	12692.52
472.093	13030.02
472.448	13593.92
472.804	13796.15
473.159	14054.92
473.514	14064.17
473.87	14277.21
474.225	15193.71
474.58	15822.84
474.935	15694.99
475.29	15296.17
475.645	15136.99
476	15008.08
476.355	14868.15
476.71	14713.44
477.065	15563.35
477.42	16197.91
477.775	16157.99
478.13	15926.08
478.485	16045.16
478.839	16409.56
479.194	17295.2
479.549	17869.23
479.903	17751.47
480.258	17352.04
480.612	17925.01
480.967	18750.63
481.321	18770.84
481.675	18059.5
482.03	17528.95
482.384	17195.08
482.738	17489.67
483.093	17775.91
483.447	18501.7
483.801	19660.43
484.155	20272.13
484.509	24521.24
484.863	54795.43
485.217	68261.35
485.571	67523.61
485.925	43525.85
486.279	31492.68
486.632	26677.08
486.986	22840.86
487.34	19867.09
487.694	18643.68
488.047	18310.86
488.401	18334.04
488.754	18133.51
489.108	17622.32
489.461	17294.95
489.815	16948.52
490.168	17314.73
490.522	17488.93
490.875	17445.94
491.228	17191.62
491.581	17446.44
491.935	17384.17
492.288	17173.33
492.641	17531.42
492.994	17336.72
493.347	18007.68
493.7	17908.22
494.053	17843.55
494.406	17336.47
494.759	16573.79
495.111	17486.71
495.464	19115.94
495.817	20058.94
496.169	19048.96
496.522	17473.37
496.875	16211.05
497.227	15953.87
497.58	16049.13
497.932	16323.83
498.285	16503.7
498.637	17300.14
498.989	17861.82
499.342	17642.57
499.694	17011.35
500.046	16501.47
500.398	17388.62
500.751	17770.48
501.103	17806.03
501.455	17827.26
501.807	17813.93
502.159	17795.66
502.511	17810.97
502.862	17700.6
503.214	17248.24
503.566	16582.95
503.918	16030.52
504.27	16250.71
504.621	16269.3
504.973	15974.96
505.324	16210.06
505.676	16713.68
506.027	16854.01
506.379	15679.84
506.73	15153.91
507.082	15496.02
507.433	15944.69
507.784	16249.22
508.136	15668.17
508.487	15485.83
508.838	15091.45
509.189	15144.7
509.54	15558.88
509.891	15304.38
510.242	15196.94
510.593	14958.79
510.944	14831.54
511.295	14344.6
511.646	14042.93
511.996	14187.07
512.347	14408.74
512.698	14337.87
513.049	14148.11
513.399	14088.15
513.75	14102.15
514.1	13693.81
514.451	13124.65
514.801	13121.89
515.152	13459.92
515.502	13724.34
515.852	14068.92
516.202	14060.17
516.553	13760.62
516.903	13226.02
517.253	12903.68
517.603	12794.61
517.953	12949.4
518.303	13607.69
518.653	13830.67
519.003	13632.23
519.353	12755.39
519.703	12075.77
520.052	11942.72
520.402	12224.36
520.752	12440.33
521.102	12214.52
521.451	11938.93
521.801	12036.65
522.15	12224.1
522.5	12398.77
522.849	12359.72
523.199	12747.6
523.548	12877.55
523.897	12692.27
524.246	12269.24
524.596	12009.39
524.945	12081.83
525.294	12075.27
525.643	12171.14
525.992	12206.2
526.341	12274.03
526.69	12236.96
527.039	11994.74
527.388	11647.72
527.737	12395.49
528.086	13240.31
528.434	13953.2
528.783	13400.78
529.132	12894.38
529.48	12442.09
529.829	12251.84
530.177	12169.88
530.526	12007.37
530.874	12189.55
531.223	12193.09
531.571	11979.09
531.919	12127.25
532.268	12964.72
532.616	13988.94
532.964	14278.71
533.312	14349.6
533.66	14282.2
534.008	14296.93
534.356	14305.17
534.704	14187.07
535.052	13782.14
535.4	13249.34
535.748	12541.55
536.095	11964.19
536.443	11875.02
536.791	12259.4
537.139	12880.82
537.486	13458.91
537.834	13725.59
538.181	13819.66
538.529	13737.85
538.876	13894.19
539.223	13425.59
539.571	12887.35
539.918	12895.64
540.265	13303.26
540.613	13843.43
540.96	13616.96
541.307	13444.63
541.654	13451.4
542.001	13385.49
542.348	13454.4
542.695	13403.53
543.042	13815.66
543.388	14150.61
543.735	14175.08
544.082	14356.83
544.429	14217.54
544.775	13651.76
545.122	12944.88
545.469	12352.16
545.815	12407.33
546.162	12619.06
546.508	13210.46
546.854	14127.63
547.201	15177.54
547.547	15675.12
547.893	15025.75
548.24	13659.52
548.586	12324.94
548.932	12049.02
549.278	11913.67
549.624	12132.29
549.97	11892.71
550.316	11411.5
550.662	11171.37
551.008	12173.41
551.353	13692.06
551.699	14522.48
552.045	13890.19
552.391	13128.42
552.736	13074.45
553.082	12957.44
553.427	12602.46
553.773	11878.3
554.118	11620.9
554.464	12328.22
554.809	13276.68
555.154	13811.66
555.5	13838.67
555.845	12825.78
556.19	12196.87
556.535	11610.27
556.88	11929.84
557.225	11978.33
557.57	11674.29
557.915	11136.61
558.26	10796.38
558.605	10786.71
558.95	11118.33
559.295	12355.68
559.639	13414.81
559.984	14603.02
560.329	14708.46
560.673	14845.49
561.018	13962.45
561.362	13358.92
561.707	12617.05
562.051	12795.36
562.395	13072.95
562.74	13739.1
563.084	14023.94
563.428	14608.76
563.772	14592.3
564.117	14657.62
564.461	14866.9
564.805	14497.04
565.149	14701.73
565.493	14644.9
565.836	15289.46
566.18	15627.19
566.524	17795.66
566.868	19086.14
567.212	19826.75
567.555	20234.27
567.899	22192.62
568.242	24049.14
568.586	27190.52
568.929	31130.73
569.273	35053.4
569.616	35397.66
569.96	36660.44
570.303	39076.48
570.646	40140.15
570.989	42490.99
571.333	42089.5
571.676	39370.76
572.019	33476.52
572.362	36887.44
572.705	42373.99
573.048	47207.79
573.391	50424.93
573.733	52209.23
574.076	53300.34
574.419	51262.2
574.762	46220.46
575.104	40635.86
575.447	40475.38
575.789	45437.56
576.132	51433.53
576.474	52108.71
576.817	60218.86
577.159	67340.53
577.501	67750.45
577.844	60284.6
578.186	48581.51
578.528	44078.94
578.87	43626.26
579.212	45660.24
579.554	49358.52
579.896	48689.47
580.238	53314.72
580.58	68661.46
580.922	68661.46
581.264	68661.46
581.606	68661.46
581.947	63316.08
582.289	52428.02
582.631	42555.62
582.972	36990.32
583.314	37157.53
583.655	39138.45
583.997	46487.77
584.338	53951.13
584.679	58928.93
585.021	57220.9
585.362	50172.5
585.703	43548.13
586.044	41900.63
586.385	46471.49
586.726	50967
587.067	48434.84
587.408	43315.39
587.749	39822.22
588.09	36378.85
588.431	32707.78
588.772	29897.61
589.113	30648.03
589.453	31090.36
589.794	29265.58
590.134	26404.09
590.475	25128.56
590.815	25371.01
591.156	25445.37
591.496	26210.9
591.837	35405.81
592.177	43084.84
592.517	48003.96
592.857	44022.75
593.198	39246.05
593.538	32288.33
593.878	29901.05
594.218	31301.85
594.558	34030.56
594.898	32784.68
595.237	29261.89
595.577	25693.74
595.917	23068.35
596.257	24803.67
596.596	25910.95
596.936	27409.09
597.276	25133.96
597.615	25655.21
597.955	32689.54
598.294	37943.7
598.633	38203.42
598.973	35532.52
599.312	35661.22
599.651	35341.59
599.991	33624.01
600.33	32884.51
600.669	30976.13
601.008	28988.51
601.347	26901.99
601.686	28335.48
602.025	27947.52
602.364	30738.11
602.702	31736.75
603.041	31769.26
603.38	29255.5
603.719	26853.13
604.057	24982.06
604.396	24948.44
604.734	26747.55
605.073	32017.32
605.411	31451.31
605.75	29754.95
606.088	26609.57
606.426	27599.68
606.764	28481.2
607.103	27219.25
607.441	25153.1
607.779	24064.6
608.117	24209.62
608.455	22509.77
608.793	21590.1
609.131	24681.71
609.469	26241.33
609.806	25831.43
610.144	22327.64
610.482	21526.01
610.819	21849.16
611.157	21452.82
611.495	20180.17
611.832	19822.57
612.17	20119.68
612.507	20619.97
612.844	20181.65
613.182	20196.65
613.519	20336.55
613.856	20500.27
614.193	20727.61
614.53	21817.24
614.867	22174.46
615.205	20115.26
615.541	18763.44
615.878	17052.41
616.215	17380.22
616.552	17134.01
616.889	17759.12
617.226	18190.99
617.562	17300.88
617.899	15428.43
618.235	13876.94
618.572	12845.13
618.908	13521.04
619.245	14832.78
619.581	15515.4
619.918	13574.14
620.254	10622.8
620.59	10097.48
620.926	11364.87
621.262	12763.44
621.599	12840.86
621.935	13011.94
622.271	14115.64
622.606	14804.88
622.942	14230.27
623.278	13370.45
623.614	14563.38
623.95	14856.94
624.285	14315.4
624.621	12874.53
624.957	12073.5
625.292	11532.06
625.628	10831.73
625.963	10486.74
626.299	10974.34
626.634	11249
626.969	11049.02
627.304	9501.38
627.64	8185.88
627.975	8300.79
628.31	9220.2
628.645	9929.95
628.98	9505.23
629.315	9153.28
629.65	9021.41
629.985	9040.22
630.319	8368.7
630.654	8044.36
630.989	8203.01
631.323	7921.91
631.658	7370.92
631.993	6780.01
632.327	6645.57
632.662	6721.89
632.996	6987.76
633.33	7145.59
633.665	6763.44
633.999	6393.05
634.333	6358.47
634.667	6259.68
635.001	6668.21
635.335	7063.03
635.669	7707.11
636.003	7612.47
636.337	6988.81
636.671	6302.48
637.005	5837.49
637.339	5890.04
637.672	6235.36
638.006	6673.74
638.339	6500.41
638.673	6073.18
639.006	5808.29
639.34	5703.35
639.673	5614.26
640.007	5560.23
640.34	5428.08
640.673	5331.79
641.006	5199.85
641.34	5068.25
641.673	4861.1
642.006	4674.71
642.339	4813.6
642.672	4886.59
643.004	4813.07
643.337	4594.29
643.67	4514.86
644.003	4609.36
644.336	4647.29
644.668	4592.94
645.001	4600.75
645.333	4372.26
645.666	4174.54
645.998	3944.09
646.331	3916.7
646.663	3920.77
646.995	4380.08
647.327	5178.73
647.66	5872.53
647.992	6043.26
648.324	6115.01
648.656	6036.1
648.988	5603.35
649.32	4962.46
649.652	4475.26
649.983	4257.52
650.315	4212.12
650.647	4307.48
650.979	4703.21
651.31	5093.94
651.642	5394.48
651.973	5400.62
652.305	5458.74
652.636	5419.55
652.967	5150.39
653.299	4901.34
653.63	4925.2
653.961	5652.83
654.292	8672.49
654.623	58595.27
654.955	68661.46
655.286	68661.46
655.616	68661.46
655.947	68661.46
656.278	68661.46
656.609	68661.46
656.94	46042.62
657.27	32866.03
657.601	24177.96
657.932	16610.93
658.262	11000.76
658.593	7479.88
658.923	5428.08
659.254	4421.08
659.584	3850.48
659.914	3475
660.244	3316.4
660.575	3334.98
660.905	3325.69
661.235	3420.44
661.565	3469.82
661.895	3521.62
662.225	3368.03
662.555	3309.29
662.884	3349.73
663.214	3481.55
663.544	3604.71
663.873	3652.07
664.203	3803.78
664.533	3960.36
664.862	4019.17
665.192	3797.53
665.521	3461.91
665.85	3186.77
666.18	2999.35
666.509	3008.68
666.838	3115.58
667.167	3174.18
667.496	3120.24
667.825	3071.19
668.154	3056.39
668.483	3159.95
668.812	3285.51
669.141	3322.68
669.47	3477.18
669.798	3404.61
670.127	3284.97
670.456	3612.88
670.784	4555.26
671.113	5449.41
671.441	6116.86
671.77	5934.33
672.098	5510.43
672.426	4601.01
672.755	3932.7
673.083	3859.44
673.411	3810.84
673.739	3688.8
674.067	3333.61
674.395	3340.71
674.723	3450.18
675.051	3593.27
675.379	3617.78
675.706	3586.46
676.034	3409.25
676.362	3312.57
676.689	3762.21
677.017	4348.51
677.344	4718.53
677.672	4611.51
677.999	4446.96
678.327	4668.8
678.654	5123.91
678.981	5420.88
679.308	5401.42
679.636	4994.08
679.963	4569.53
680.29	4385.48
680.617	4536.95
680.944	4714.76
681.271	4560.64
681.597	3970.39
681.924	3497.36
682.251	3408.98
682.578	3841.8
682.904	4327.46
683.231	4771.45
683.557	4966.75
683.884	5247.41
684.21	5561.82
684.536	5958.19
684.863	6211.83
685.189	6026.57
685.515	5469.66
685.841	5072
686.167	4960.32
686.493	5242.6
686.819	5156.27
687.145	4735.72
687.471	4106.9
687.797	3810.3
688.123	3788.02
688.448	4070.09
688.774	4336.91
689.1	4165.88
689.425	3872.47
689.751	3761.94
690.076	4141
690.402	4751.57
690.727	5036.39
691.052	4866.74
691.377	4559.3
691.703	4420.81
692.028	4273.19
692.353	4573.83
692.678	4507.05
693.003	4303.43
693.328	3646.63
693.652	3311.48
693.977	3375.94
694.302	3795.36
694.627	3984.48
694.951	3723.61
695.276	3158.03
695.6	2945.83
695.925	3778.51
696.249	4895.71
696.574	5575.67
696.898	5294.68
697.222	4647.02
697.546	4254.01
697.871	4098.51
698.195	3989.36
698.519	3760.58
698.843	3626.22
699.167	3307.11
699.491	3113.12
699.814	3030.34
700.138	2996.88
700.462	2930.46
700.786	2953.25
701.109	3160.77
701.433	3357.37
701.756	3596.81
702.08	3622.13
702.403	3491.63
702.726	3214.41
703.05	3037.47
703.373	2982.61
703.696	2974.65
704.019	2807.9
704.342	2609.65
704.665	2438.8
704.988	2390.99
705.311	2644.38
705.634	3266.65
705.957	4076.04
706.28	4785.95
706.602	4985.5
706.925	4828.9
707.247	4493.85
707.57	4061.97
707.892	3846.96
708.215	3570.94
708.537	3274.31
708.859	3253.8
709.182	3314.49
709.504	3513.17
709.826	3617.51
710.148	3567.13
710.47	3395.6
710.792	3140.78
711.114	2938.7
711.436	2805.7
711.758	2885.97
712.079	2926.62
712.401	3259.82
712.723	3460.27
713.044	3920.5
713.366	4080.65
713.687	4064.67
714.009	3839.9
714.33	3662.41
714.652	3477.45
714.973	3219.88
715.294	2895.03
715.615	2608.82
715.936	2462.01
716.257	2403.15
716.578	2407.85
716.899	2524.41
717.22	2838.7
717.541	2993.31
717.862	3067.63
718.182	2993.59
718.503	3160.49
718.824	3136.4
719.144	3039.12
719.465	2866.73
719.785	2932.66
720.105	3063.79
720.426	3156.66
720.746	3095.03
721.066	3066.81
721.386	2949.4
721.706	2845.57
722.026	2711.87
722.346	2643.56
722.666	2750.13
722.986	2817.53
723.306	2794.43
723.626	2712.15
723.946	2655.96
724.265	2991.94
724.585	3304.1
724.904	3379.77
725.224	3387.14
725.543	3402.97
725.863	3327.33
726.182	3150.91
726.501	2957.64
726.82	3004.84
727.14	3114.21
727.459	3353.01
727.778	3347.27
728.097	3301.64
728.416	3341.26
728.734	3590.82
729.053	3723.88
729.372	3755.42
729.691	3898.52
730.009	4357.15
730.328	4593.21
730.647	4633.57
730.965	4333.13
731.283	4060.61
731.602	3849.94
731.92	4035.69
732.238	4202.12
732.557	4357.69
732.875	4459.09
733.193	5087.52
733.511	5374.75
733.829	5142.63
734.147	4560.37
734.465	4134.5
734.782	4185.62
735.1	4349.86
735.418	4336.91
735.735	4341.23
736.053	4379.54
736.371	4370.1
736.688	4018.63
737.005	3635.74
737.323	3327.05
737.64	3275.4
737.957	3610.43
738.274	4286.69
738.592	4662.08
738.909	4388.45
739.226	3700.22
739.543	3187.05
739.86	2899.98
740.176	2744.08
740.493	2539.32
740.81	2432.45
741.127	2542.35
741.443	2810.93
741.76	3008.13
742.076	3016.36
742.393	2693.7
742.709	2482.17
743.025	2369.97
743.342	2343.69
743.658	2447.09
743.974	2600
744.29	2585.39
744.606	2510.61
744.922	2537.66
745.238	2471.95
745.554	2407.3
745.87	2345.91
746.186	2512.54
746.501	2779.85
746.817	2660.64
747.132	2400.11
747.448	2144.8
747.763	2145.91
748.079	2331.24
748.394	2800.2
748.71	3116.13
749.025	3576.11
749.34	3709.74
749.655	3633.84
749.97	3411.43
750.285	3303.01
750.6	3433.26
750.915	3556.5
751.23	3540.15
751.545	3335.8
751.859	2979.32
752.174	2914.81
752.489	3204.01
752.803	3664.59
753.118	3741.01
753.432	3497.09
753.747	3323.23
754.061	3498.72
754.375	3717.08
754.689	3993.16
755.004	4096.89
755.318	4252.11
755.632	4643.25
755.946	4877.74
756.26	5217.49
756.573	5822.63
756.887	6175.6
757.201	5966.94
757.515	5080.03
757.828	4397.08
758.142	4321.25
758.455	4990.33
758.769	5594.83
759.082	5883.67
759.396	6114.22
759.709	6259.15
760.022	6231.66
760.335	5641.13
760.648	4939.14
760.962	4279.94
761.275	3815.73
761.587	3718.44
761.9	3685.27
762.213	3883.6
762.526	4210.77
762.839	4177.24
763.151	4460.44
763.464	4957.9
763.776	5771.91
764.089	6090.92
764.401	5720.63
764.714	5080.56
765.026	4513.79
765.338	3944.63
765.65	3446.91
765.962	3105.17
766.275	2878
766.587	2815.33
766.898	2937.05
767.21	3344.26
767.522	3923.21
767.834	4273.46
768.146	4171.02
768.457	3848.31
768.769	3411.71
769.08	3275.67
769.392	3534.98
769.703	4007.25
770.015	4329.35
770.326	4377.12
770.637	4100.14
770.948	3537.97
771.26	3102.16
771.571	3062.42
771.882	3133.66
772.193	3171.99
772.504	3004.84
772.814	2879.92
773.125	2757.29
773.436	2555.6
773.747	2405.64
774.057	2363.33
774.368	2318.24
774.678	2165.04
774.989	2051.82
775.299	1948.44
775.609	1989.03
775.919	2024.32
776.23	2035.15
776.54	2024.04
776.85	2027.1
777.16	2106.79
777.47	2355.31
777.78	2560.01
778.089	2903.55
778.399	2899.7
778.709	2749.58
779.019	2419.46
779.328	2122.88
779.638	2179.74
779.947	2594.49
780.257	3123.8
780.566	3442
780.875	3243.41
781.185	2936.23
781.494	2772.42
781.803	2671.38
782.112	2569.66
782.421	2649.34
782.73	2762.52
783.039	2722.06
783.348	2336.78
783.656	2099.57
783.965	1964.01
784.274	2174.19
784.582	2351.44
784.891	2376.06
785.199	2252.9
785.508	2182.79
785.816	2076.53
786.124	2155.06
786.432	2390.71
786.741	2621.23
787.049	2665.6
787.357	2598.07
787.665	2649.07
787.973	2657.06
788.281	2460.08
788.588	2223.81
788.896	1959.01
789.204	1845.75
789.511	1851.88
789.819	1751.01
790.126	1713.91
790.434	1755.47
790.741	1761.88
791.049	1748.22
791.356	1604.2
791.663	1554.17
791.97	1535.72
792.277	1584.64
792.584	1751.57
792.891	2212.45
793.198	2668.9
793.505	2818.63
793.812	2620.95
794.119	2519.44
794.425	2433.83
794.732	2181.96
795.038	1848.81
795.345	1558.92
795.651	1400.81
795.958	1366.9
796.264	1490.68
796.57	1718.66
796.876	1783.9
797.183	1664.8
797.489	1522.01
797.795	1503.55
798.101	1547.46
798.406	1496.56
798.712	1430.78
799.018	1346.44
799.324	1346.16
799.629	1325.97
799.935	1335.22
800.24	1323.44
800.546	1253.86
800.851	1214.55
801.157	1142.05
801.462	1092.55
801.767	1113.65
802.072	1183.65
802.377	1318.12
802.682	1358.49
802.987	1299.88
803.292	1177.75
803.597	1174.09
803.902	1171
804.207	1212.3
804.511	1239.26
804.816	1334.1
805.12	1599.73
805.425	1827.09
805.729	1885.01
806.034	1715.31
806.338	1516.7
806.642	1435.54
806.946	1452.06
807.251	1450.94
807.555	1512.22
807.859	1520.62
808.162	1440.58
808.466	1379.79
808.77	1242.07
809.074	1195.73
809.378	1199.94
809.681	1148.8
809.985	1184.21
810.288	1152.45
810.592	1162.57
810.895	1073.7
811.198	983.87
811.502	957.1
811.805	904.66
812.108	950.62
812.411	1067.23
812.714	1202.75
813.017	1389.6
813.32	1382.31
813.623	1283.05
813.926	1147.95
814.228	1057.66
814.531	963.3
814.833	934.55
815.136	944.7
815.438	932.57
815.741	949.21
816.043	989.23
816.345	1017.11
816.648	1013.45
816.95	959.92
817.252	949.21
817.554	923.83
817.856	878.7
818.158	842.86
818.46	848.5
818.761	871.65
819.063	849.35
819.365	908.6
819.666	981.06
819.968	1139.8
820.269	1134.74
820.571	1075.95
820.872	970.91
821.173	886.6
821.475	853.02
821.776	838.06
822.077	861.2
822.378	863.74
822.679	834.95
822.98	816.31
823.281	805.58
823.581	788.07
823.882	784.96
824.183	802.19
824.483	844.55
824.784	899.58
825.084	909.73
825.385	900.71
825.685	831.28
825.985	809.82
826.286	834.39
826.586	862.9
826.886	917.63
827.186	917.63
827.486	821.96
827.786	812.64
828.086	826.76
828.386	821.68
828.685	847.94
828.985	827.04
829.285	773.66
829.584	713.16
829.884	756.98
830.183	678.36
830.482	659.97
830.782	662.51
831.081	624.01
831.38	622.31
831.679	669.02
831.978	667.33
832.277	693.07
832.576	725.32
832.875	715.99
833.174	701.56
833.472	736.06
833.771	701.84
834.07	755
834.368	716.27
834.667	689.68
834.965	691.66
835.263	685.44
835.562	665.63
835.86	711.18
836.158	620.33
836.456	625.15
836.754	607.3
837.052	580.96
837.35	597.39
837.648	570.19
837.946	562.54
838.243	586.91
838.541	562.54
838.839	634.21
839.136	585.21
839.434	634.77
839.731	643.27
840.028	598.52
840.326	601.35
840.623	637.89
840.92	554.88
841.217	569.91
841.514	566.22
841.811	585.21
842.108	556.3
842.405	548.93
842.701	552.05
842.998	556.3
843.295	557.44
843.591	559.14
843.888	562.25
844.184	537.59
844.481	563.67
844.777	543.26
845.073	567.64
845.369	549.5
845.665	533.91
845.962	550.63
846.258	542.98
846.553	529.65
846.849	517.46
847.145	559.7
847.441	541.84
847.737	556.87
848.032	567.07
848.328	537.02
848.623	546.38
848.919	517.18
849.214	524.55
849.509	541.28
849.805	529.37
850.1	527.95
850.395	528.52
850.69	532.77
850.985	505.55
851.28	544.4
851.575	553.18
851.869	570.76
852.164	569.91
852.459	556.02
852.753	641.85
853.048	688.26
853.342	696.75
853.637	706.93
853.931	700.71
854.225	671.29
854.52	673.27
854.814	649.21
855.108	660.53
855.402	634.21
855.696	629.11
855.99	605.89
856.283	632.79
856.577	601.35
856.871	604.47
857.164	561.12
857.458	588.04
857.751	552.05
858.045	558.85
858.338	565.09
858.632	557.15
858.925	563.39
859.218	545.53
859.511	537.88
859.804	543.26
860.097	523.7
860.39	533.91
860.683	541.28
860.976	536.46
861.268	511.22
861.561	503.28
861.854	525.4
862.146	525.12
862.439	542.69
862.731	520.58
863.023	512.35
863.316	490.51
863.608	548.36
863.9	528.52
864.192	535.32
864.484	546.95
864.776	545.53
865.068	501.58
865.36	489.66
865.651	508.67
865.943	514.06
866.235	508.1
866.526	514.34
866.818	499.87
867.109	493.92
867.4	540.99
867.692	504.98
867.983	520.86
868.274	509.8
868.565	493.35
868.856	502.43
869.147	509.8
869.438	502.43
869.729	499.31
870.02	497.04
870.31	495.05
870.601	511.22
870.892	531.92
871.182	498.74
871.473	510.94
871.763	518.59
872.053	516.32
872.343	516.89
872.634	491.65
872.924	503.28
873.214	516.32
873.504	512.92
873.794	483.42
874.084	469.23
874.373	480.87
874.663	509.52
874.953	485.4
875.242	498.46
875.532	510.65
875.821	505.55
876.111	501.29
876.4	501.86
876.689	522.56
876.978	515.19
877.268	515.47
877.557	495.62
877.846	480.3
878.134	491.65
878.423	491.65
878.712	491.65
