Data from FLMS007011_11-31-43-274.txt Node
Date: Thu Apr 21 11:31:43 MDT 2016
User: lab_user
Spectrometer: FLMS00701
Autoset integration time: false
Trigger mode: 0
Integration Time (sec): 5.000000E-3
Scans to average: 10
Electric dark correction enabled: true
Nonlinearity correction enabled: true
Boxcar width: 0
XAxis mode: Wavelengths
Stop averaging: false
Number of Pixels in Spectrum: 2048
>>>>>Begin Spectral Data<<<<<
178.41	33.91
178.791	33.91
179.172	33.91
179.553	-27.8
179.934	-50.09
180.316	-60.1
180.697	-36.37
181.078	-72.11
181.459	-75.54
181.84	-45.8
182.221	-51.52
182.602	-24.94
182.983	-7.79
183.364	23.34
183.744	47.9
184.125	78.44
184.506	86.43
184.887	113.82
185.268	140.34
185.648	188.79
186.029	177.4
186.41	204.18
186.791	196.49
187.171	269.66
187.552	328.27
187.932	370.34
188.313	317.18
188.694	400.46
189.074	407.27
189.455	396.76
189.835	422.61
190.216	449.58
190.596	452.71
190.977	454.12
191.357	475.69
191.737	483.92
192.118	510.31
192.498	506.05
192.878	517.68
193.258	497.26
193.639	512.01
194.019	534.13
194.399	545.47
194.779	558.22
195.159	584.58
195.54	559.36
195.92	528.74
196.3	545.47
196.68	561.91
197.06	566.73
197.44	545.75
197.82	570.69
198.2	553.69
198.58	543.2
198.959	560.77
199.339	544.9
199.719	579.19
200.099	551.42
200.479	552.55
200.858	542.06
201.238	556.81
201.618	562.19
201.998	526.75
202.377	548.59
202.757	593.93
203.136	575.51
203.516	540.08
203.896	567.01
204.275	553.12
204.655	542.92
205.034	585.71
205.414	585.99
205.793	620.27
206.172	598.18
206.552	599.59
206.931	573.81
207.31	576.64
207.69	591.94
208.069	587.41
208.448	606.11
208.827	637.26
209.207	642.92
209.586	670.09
209.965	625.65
210.344	641.5
210.723	645.18
211.102	627.35
211.481	636.41
211.86	666.98
212.239	696.69
212.618	734.59
212.997	746.74
213.376	734.3
213.755	711.11
214.134	717.62
214.513	664.72
214.891	694.14
215.27	706.59
215.649	786.87
216.028	799.02
216.406	803.26
216.785	877.79
217.164	824.72
217.542	846.18
217.921	789.13
218.3	809.75
218.678	765.11
219.057	821.9
219.435	854.08
219.814	907.7
220.192	981.27
220.57	1008.32
220.949	1031.41
221.327	984.37
221.705	948.02
222.084	890.49
222.462	867.35
222.84	912.21
223.218	959.01
223.597	1016.77
223.975	1126.24
224.353	1176
224.731	1242.57
225.109	1234.71
225.487	1202.41
225.865	1167.29
226.243	1083.49
226.621	1057.88
226.999	1069.13
227.377	1136.36
227.755	1226
228.133	1332.64
228.511	1454.79
228.889	1550.47
229.266	1584.58
229.644	1526.43
230.022	1477.47
230.4	1354.79
230.777	1276.53
231.155	1205.78
231.533	1241.16
231.91	1349.18
232.288	1457.87
232.665	1630.95
233.043	1791.64
233.42	1906.09
233.798	1939.48
234.175	1912.21
234.553	1805.3
234.93	1666.41
235.307	1506.85
235.685	1429.88
236.062	1413.07
236.439	1465.71
236.816	1580.66
237.194	1764.05
237.571	1986.74
237.948	2173.85
238.325	2255.61
238.702	2256.71
239.079	2230.4
239.456	2126.43
239.833	1946.43
240.21	1776.59
240.587	1661.11
240.964	1583.74
241.341	1608.61
241.718	1733.93
242.095	1945.87
242.472	2199.64
242.849	2392.58
243.225	2587.53
243.602	2712.36
243.979	2681.79
244.356	2575.95
244.732	2397.28
245.109	2198.53
245.486	2013.98
245.862	1889.4
246.239	1793.87
246.615	1808.92
246.992	1929.19
247.368	2163.32
247.745	2456.7
248.121	2712.08
248.497	2939.46
248.874	3117.44
249.25	3176.86
249.626	3051.67
250.003	2925.18
250.379	2653.41
250.755	2427.97
251.131	2163.87
251.507	2047.04
251.884	1982.3
252.26	2056.76
252.636	2217.1
253.012	2505.86
253.388	2854.85
253.764	3147.02
254.14	3394.45
254.516	3537.09
254.892	3621.26
255.268	3576.05
255.643	3369.33
256.019	3094.7
256.395	2778.41
256.771	2550.29
257.147	2302.95
257.522	2185.22
257.898	2172.47
258.274	2273.33
258.649	2478.8
259.025	2754.47
259.4	3136.88
259.776	3459.67
260.151	3691.19
260.527	3894.93
260.902	3970.06
261.278	3867.8
261.653	3641.4
262.028	3364.14
262.404	3079.9
262.779	2793.27
263.154	2481.28
263.53	2274.71
263.905	2221.25
264.28	2230.4
264.655	2404.75
265.03	2643.22
265.405	2987.76
265.781	3326.45
266.156	3659.09
266.531	3877.84
266.906	4001.5
267.281	4068.13
267.655	3961.11
268.03	3748.29
268.405	3464.03
268.78	3181.24
269.155	2847.16
269.53	2545.6
269.904	2355.8
270.279	2180.23
270.654	2156.38
271.029	2255.33
271.403	2429.9
271.778	2709.61
272.152	3033.57
272.527	3289.01
272.901	3665.07
273.276	3881.64
273.65	3985.78
274.025	3996.89
274.399	3898.19
274.774	3719.47
275.148	3477.94
275.522	3133.6
275.897	2865.85
276.271	2527.66
276.645	2303.78
277.019	2126.43
277.393	2102.56
277.768	2046.2
278.142	2161.1
278.516	2354.42
278.89	2637.43
279.264	2911.45
279.638	3187.53
280.012	3459.12
280.386	3626.43
280.76	3733.61
281.133	3773.56
281.507	3726.81
281.881	3571.97
282.255	3405.09
282.629	3166.46
283.002	2845.51
283.376	2568.5
283.75	2272.22
284.123	2090.91
284.497	1932.8
284.87	1825.36
285.244	1894.96
285.618	1940.59
285.991	2065.92
286.364	2336.44
286.738	2572.36
287.111	2846.06
287.485	2997.64
287.858	3189.18
288.231	3375.34
288.605	3399.36
288.978	3450.94
289.351	3320.71
289.724	3187.81
290.097	3056.05
290.47	2803.72
290.843	2585.88
291.217	2299.35
291.59	2087.57
291.963	1904.98
292.336	1759.59
292.708	1645.47
293.081	1615.87
293.454	1690.14
293.827	1711.62
294.2	1864.62
294.573	1991.47
294.945	2187.44
295.318	2430.18
295.691	2630.54
296.064	2824.07
296.436	2958.4
296.809	3097.71
297.181	3147.56
297.554	3178.23
297.926	3081.27
298.299	3054.41
298.671	2940.83
299.044	2787.22
299.416	2610.97
299.788	2432.94
300.161	2196.03
300.533	2043.15
300.905	1940.59
301.278	1782.17
301.65	1746.48
302.022	1711.9
302.394	1747.88
302.766	1852.65
303.138	2041.48
303.51	2262.81
303.882	2526.56
304.254	2810.04
304.626	3148.11
304.998	3441.12
305.37	3678.95
305.742	3910.13
306.114	4191.24
306.485	4277.18
306.857	4381.37
307.229	4381.1
307.601	4340.63
307.972	4305.26
308.344	4094.12
308.716	3893.85
309.087	3713.49
309.459	3481.76
309.83	3297.48
310.202	3168.1
310.573	3106.21
310.945	3073.32
311.316	3114.15
311.687	3264.4
312.059	3500.84
312.43	3875.12
312.801	4330.37
313.172	4818.11
313.544	5317.05
313.915	5879.9
314.286	6381.12
314.657	6918.41
315.028	7321.18
315.399	7653.09
315.77	7966.59
316.141	8122.23
316.512	8257.17
316.883	8198.28
317.254	8131.06
317.625	8007.92
317.996	7867.48
318.366	7622.32
318.737	7370.86
319.108	7246.09
319.478	7005.54
319.849	7005.8
320.22	7032.03
320.59	7161.77
320.961	7435.67
321.331	7863.84
321.702	8229.68
322.072	8765.18
322.443	9365.95
322.813	10050.64
323.184	10747.99
323.554	11239.06
323.924	11902.5
324.295	12296.66
324.665	12680.14
325.035	13077.91
325.405	13264.59
325.775	13324.27
326.145	13349.59
326.515	13302.45
326.886	13204.89
327.256	13144.42
327.626	12852.36
327.995	12601.9
328.365	12384.6
328.735	12161
329.105	11814.06
329.475	11593.01
329.845	11307.53
330.215	11519.34
330.584	11981.05
330.954	12708.06
331.324	13682.24
331.693	14696.44
332.063	15528.02
332.432	16466.73
332.802	16837.62
333.171	17019.71
333.541	16822.28
333.91	17053.09
334.28	17325.05
334.649	17515.31
335.018	17724.99
335.388	17807.95
335.757	17830.42
336.126	17754.13
336.495	17844.98
336.865	17689.44
337.234	17442.43
337.603	17364.1
337.972	17210.36
338.341	17040.73
338.71	17016.98
339.079	16782.93
339.448	16745.06
339.817	16700.25
340.186	16619.79
340.554	16606.17
340.923	16894.04
341.292	16821.78
341.661	17094.39
342.029	17433.78
342.398	17646.22
342.767	17842.26
343.135	18288.86
343.504	18453.57
343.872	18830.9
344.241	19187.54
344.609	19120.57
344.978	19370.96
345.346	19768.88
345.715	19561.46
346.083	19635.77
346.451	19709.59
346.82	19702.45
347.188	19687.2
347.556	19499.93
347.924	19553.34
348.292	19275.93
348.66	19197.64
349.028	19032.65
349.396	18734.31
349.764	18684.78
350.132	18410.67
350.5	18513.23
350.868	18352.97
351.236	18267.4
351.604	18285.16
351.972	18341.63
352.34	18202.04
352.707	18340.15
353.075	18588.17
353.443	18599.26
353.81	18600.49
354.178	18806.75
354.545	19200.59
354.913	19192.22
355.28	19242.45
355.648	19436.68
356.015	19609.44
356.383	19783.89
356.75	19627.65
357.117	19636.76
357.485	19785.86
357.852	19640.45
358.219	19697.04
358.586	19640.2
358.954	19556.78
359.321	19429.54
359.688	19365.54
360.055	19161.93
360.422	19137.56
360.789	18859.72
361.156	18681.58
361.523	18578.8
361.89	18439.52
362.256	18394.89
362.623	18203.02
362.99	18084.36
363.357	18074.25
363.724	18010.59
364.09	18029.34
364.457	17958.52
364.823	18233.36
365.19	18220.29
365.557	18377.88
365.923	18474.04
366.29	18386.51
366.656	18649.54
367.022	18839.28
367.389	18756.24
367.755	18759.94
368.121	18796.41
368.488	18933.88
368.854	18755.01
369.22	18661.37
369.586	18562.78
369.952	18542.32
370.318	18378.62
370.684	18381.33
371.051	18356.67
371.416	18099.66
371.782	18116.44
372.148	17850.16
372.514	17730.67
372.88	17576.57
373.246	17387.08
373.612	17377.2
373.977	17298.11
374.343	17361.38
374.709	17344.57
375.074	17039
375.44	16783.67
375.806	16613.85
376.171	16668.32
376.537	16665.59
376.902	16661.39
377.268	16810.89
377.633	16953.41
377.998	17114.92
378.364	17473.81
378.729	17412.28
379.094	17380.41
379.459	17093.65
379.825	17117.14
380.19	17255.35
380.555	17082.28
380.92	16893.79
381.285	16929.91
381.65	17120.85
382.015	17223.71
382.38	17058.29
382.745	16821.29
383.11	16883.64
383.474	16897.99
383.839	16887.6
384.204	16621.28
384.569	16507.11
384.933	16424.62
385.298	16156.95
385.663	16209.26
386.027	16136.37
386.392	16114.54
386.756	16132.65
387.121	15990.78
387.485	16027.49
387.849	16004.67
388.214	15599.57
388.578	15326.2
388.942	15025.95
389.307	14925.62
389.671	14787.14
390.035	14871.83
390.399	14980.14
390.763	15073.23
391.127	15260.81
391.492	15712.31
391.856	16036.42
392.219	16476.15
392.583	16424.87
392.947	15962.99
393.311	15666.13
393.675	15695.93
394.039	15690.71
394.403	15569.51
394.766	15611.24
395.13	15639.55
395.494	15528.27
395.857	15719.27
396.221	15891.53
396.584	16161.91
396.948	16472.93
397.311	16956.88
397.675	17202.2
398.038	17110.96
398.401	16454.6
398.765	15895.75
399.128	15432.85
399.491	15041.87
399.854	14807.82
400.218	14712.64
400.581	14457.33
400.944	14181.52
401.307	13693
401.67	13621.16
402.033	13337.55
402.396	13139.9
402.759	13059.59
403.122	12970.95
403.485	12982
403.847	13042.51
404.21	13149.94
404.573	13294.43
404.936	13298.94
405.298	12961.4
405.661	12657.25
406.023	12428.69
406.386	12392.66
406.749	12402.74
407.111	12406.02
407.473	12807.12
407.836	13140.16
408.198	13341.31
408.561	13436.06
408.923	13418.77
409.285	13550.04
409.647	13286.65
410.009	13126.35
410.372	13183.06
410.734	13109.54
411.096	13166.5
411.458	13255.31
411.82	13323.26
412.182	13521.49
412.544	13403.73
412.906	13327.78
413.267	13282.89
413.629	12921.97
413.991	12668.07
414.353	12607.68
414.714	12177.39
415.076	12111.04
415.438	11983.07
415.799	11936.1
416.161	11594.53
416.522	11356.45
416.884	11154.32
417.245	10998.92
417.607	10820.23
417.968	10763.25
418.329	10727.12
418.691	10705.74
419.052	10595.23
419.413	10740.35
419.774	10816.67
420.135	11235.76
420.497	11571.75
420.858	12053
421.219	12133.25
421.58	11966.15
421.941	11659.05
422.302	11429.94
422.662	11532.25
423.023	11397.76
423.384	11539.34
423.745	11696.24
424.106	11981.81
424.466	12068.9
424.827	11926.25
425.187	11694.97
425.548	11505.92
425.909	11402.32
426.269	11626.66
426.63	11787.27
426.99	12025.74
427.35	11879.26
427.711	11991.91
428.071	12085.31
428.431	12576.23
428.792	13396.46
429.152	14156.55
429.512	14199
429.872	13824.36
430.232	13326.27
430.592	12455.38
430.952	11680.55
431.312	11102.79
431.672	10507.07
432.032	10515.48
432.392	10670.36
432.752	11547.95
433.111	12040.13
433.471	11805.21
433.831	10759.44
434.19	10546.83
434.55	10563.64
434.91	10216.99
435.269	10485.41
435.629	10494.84
435.988	10649.22
436.348	10420.9
436.707	10158.5
437.066	10295.89
437.426	10474.96
437.785	10761.47
438.144	10885.33
438.503	10882.79
438.862	10873.38
439.222	10754.09
439.581	10790.22
439.94	11191.36
440.299	12088.59
440.658	12974.97
441.017	13105.02
441.376	13087.45
441.734	12793.3
442.093	12813.91
442.452	13043.02
442.811	13297.69
443.169	13291.92
443.528	12949.85
443.887	12748.55
444.245	12796.82
444.604	12547.53
444.962	12308.25
445.321	12306.23
445.679	12367.47
446.038	12493.66
446.396	12146.87
446.754	11690.16
447.112	11604.65
447.471	11463.37
447.829	11161.17
448.187	11134.01
448.545	11090.6
448.903	11029.41
449.261	10915.58
449.619	10628.6
449.977	10452.27
450.335	10192.47
450.693	10067.77
451.051	9959.07
451.409	9867.69
451.766	9798.04
452.124	9544.45
452.482	9336.9
452.839	9197.76
453.197	9136.49
453.555	8965.42
453.912	9099.67
454.27	9380.08
454.627	9749.35
454.984	9799.83
455.342	9626.04
455.699	9415.54
456.056	9653.99
456.414	9998.47
456.771	10360.45
457.128	10598.8
457.485	10799.12
457.842	10762.74
458.199	10879.23
458.556	11251.99
458.913	11285.72
459.27	11529.22
459.627	11286.99
459.984	11364.05
460.341	11584.15
460.697	11329.07
461.054	10827.1
461.411	10351.26
461.767	10177.15
462.124	10095.89
462.481	10517.27
462.837	10788.18
463.194	11348.34
463.55	11121.32
463.907	11631.73
464.263	11991.91
464.619	12477.29
464.976	12820.45
465.332	12813.41
465.688	12103.73
466.044	11152.54
466.4	10777.24
466.756	10576.13
467.112	10544.28
467.468	10492.29
467.824	10317.58
468.18	9955.74
468.536	9868.97
468.892	9494.9
469.248	9328.16
469.604	9235.84
469.959	9181.54
470.315	9086.53
470.671	9140.1
471.026	9191.06
471.382	9374.69
471.737	9618.6
472.093	9717.83
472.448	10114.03
472.804	10418.35
473.159	10521.09
473.514	10573.84
473.87	10717.19
474.225	11464.39
474.58	12051.49
474.935	12085.31
475.29	11761.23
475.645	11771.09
476	11789.04
476.355	11740.24
476.71	11725.57
477.065	12446.07
477.42	13022.93
477.775	13059.08
478.13	12969.19
478.485	13235.49
478.839	13560.06
479.194	14351.79
479.549	14857.88
479.903	14951.76
480.258	14611.44
480.612	15162.81
480.967	15970.68
481.321	16091.98
481.675	15462.67
482.03	14972.18
482.384	14864.36
482.738	15034.91
483.093	15258.32
483.447	15883.1
483.801	16977.41
484.155	17431.31
484.509	20889.98
484.863	46846.31
485.217	59349.25
485.571	59299.53
485.925	37687.95
486.279	26901.93
486.632	22766.93
486.986	19382.28
487.34	16790.6
487.694	15744.59
488.047	15503.92
488.401	15458.69
488.754	15099.36
489.108	14593.99
489.461	14410.68
489.815	14057.12
490.168	14203.5
490.522	14362.27
490.875	14144.06
491.228	13986.14
491.581	14070.11
491.935	14050.62
492.288	13840.62
492.641	14003.89
492.994	13948.14
493.347	14246.2
493.7	14297.87
494.053	14135.06
494.406	13822.36
494.759	13291.92
495.111	14006.39
495.464	15234.2
495.817	16013.6
496.169	15293.63
496.522	14150.55
496.875	13102.51
497.227	13006.86
497.58	12945.83
497.932	13415.26
498.285	13555.3
498.637	14225.47
498.989	14808.07
499.342	14778.67
499.694	14292.38
500.046	13932.14
500.398	14723.11
500.751	15235.19
501.103	15262.8
501.455	15330.43
501.807	15346.09
502.159	15540.44
502.511	15624.16
502.862	15591.87
503.214	15152.36
503.566	14644.35
503.918	14235.96
504.27	14346.3
504.621	14435.62
504.973	14267.42
505.324	14325.83
505.676	14865.6
506.027	14934.83
506.379	14031.13
506.73	13545.53
507.082	13814.61
507.433	14145.56
507.784	14539.39
508.136	14039.37
508.487	13797.09
508.838	13426.28
509.189	13494.18
509.54	13768.07
509.891	13515.98
510.242	13428.54
510.593	13242.26
510.944	13073.64
511.295	12568.17
511.646	12271.2
511.996	12323.12
512.347	12512.04
512.698	12445.31
513.049	12336.48
513.399	12065.37
513.75	12193.53
514.1	11737.71
514.451	11232.71
514.801	11165.48
515.152	11408.15
515.502	11654.5
515.852	11875.47
516.202	11851.97
516.553	11568.46
516.903	11097.97
517.253	10866.51
517.603	10632.42
517.953	10726.61
518.303	11314.12
518.653	11495.29
519.003	11306.76
519.353	10716.94
519.703	10169.74
520.052	10094.35
520.402	10183.28
520.752	10430.34
521.102	10212.14
521.451	10038.11
521.801	10061.37
522.15	10272.15
522.5	10491.78
522.849	10503.51
523.199	10794.03
523.548	10962.59
523.897	10886.85
524.246	10574.34
524.596	10346.93
524.945	10448.95
525.294	10457.37
525.643	10635.22
525.992	10633.69
526.341	10762.74
526.69	10783.6
527.039	10599.56
527.388	10444.36
527.737	11058.87
528.086	11939.63
528.434	12453.12
528.783	12031.04
529.132	11487.18
529.48	11133
529.829	11111.68
530.177	10994.35
530.526	10862.96
530.874	10961.07
531.223	11073.85
531.571	10962.08
531.919	11046.68
532.268	11760.47
532.616	12569.68
532.964	13096.74
533.312	13088.71
533.66	12919.45
534.008	13038.5
534.356	13035.99
534.704	12851.86
535.052	12392.41
535.4	12005.29
535.748	11414.23
536.095	10804.72
536.443	10648.71
536.791	11053.79
537.139	11580.86
537.486	12171.59
537.834	12329.17
538.181	12418.36
538.529	12333.7
538.876	12426.42
539.223	12011.1
539.571	11531.49
539.918	11469.45
540.265	11846.41
540.613	12222.03
540.96	11939.13
541.307	11789.54
541.654	11774.12
542.001	11760.97
542.348	11704.08
542.695	11691.43
543.042	11976.25
543.388	12250.78
543.735	12316.06
544.082	12285.31
544.429	12330.18
544.775	11730.88
545.122	11146.45
545.469	10584.03
545.815	10737.55
546.162	10856.09
546.508	11277.35
546.854	12018.92
547.201	13007.11
547.547	13328.53
547.893	12821.7
548.24	11689.91
548.586	10590.9
548.932	10273.68
549.278	10117.1
549.624	10410.96
549.97	10219.29
550.316	9818.53
550.662	9701.43
551.008	10506.31
551.353	11889.87
551.699	12690.7
552.045	12205.64
552.391	11490.22
552.736	11448.94
553.082	11420.06
553.427	11235.76
553.773	10436.97
554.118	10346.93
554.464	10950.9
554.809	11766.28
555.154	12390.15
555.5	12354.87
555.845	11626.66
556.19	10957
556.535	10450.74
556.88	10810.31
557.225	10931.59
557.57	10617.39
557.915	10136.78
558.26	9867.18
558.605	9898.93
558.95	10249.68
559.295	11333.38
559.639	12307.75
559.984	13377.41
560.329	13428.04
560.673	13695.5
561.018	12793.55
561.362	12266.91
561.707	11605.41
562.051	11757.94
562.395	12001.5
562.74	12601.14
563.084	12885.28
563.428	13484.66
563.772	13471.39
564.117	13492.68
564.461	13688
564.805	13323.26
565.149	13513.22
565.493	13522.74
565.836	14022.38
566.18	14210.99
566.524	16249.67
566.868	17345.07
567.212	17929.64
567.555	18302.67
567.899	20054.46
568.242	21787.97
568.586	24654.91
568.929	28111.09
569.273	31590.4
569.616	31951.24
569.96	32923.66
570.303	34899.77
570.646	35988.3
570.989	38017.17
571.333	37758.74
571.676	35264.98
572.019	29846.14
572.362	32357.03
572.705	37263.84
573.048	41765.07
573.391	44517.1
573.733	46055.49
574.076	47090.38
574.419	44960.5
574.762	40442.29
575.104	35538.64
575.447	34984.95
575.789	39369.22
576.132	44678.55
576.474	45285.26
576.817	52432.1
577.159	59230.3
577.501	59806.04
577.844	52818.84
578.186	42242.76
578.528	37847.85
578.87	37519.67
579.212	39358.56
579.554	42733.04
579.896	42023.9
580.238	46148.08
580.58	60337.1
580.922	68005.74
581.264	68745.34
581.606	62980.4
581.947	56221.55
582.289	46021.27
582.631	37338.8
582.972	32341.01
583.314	32690.96
583.655	34402.62
583.997	40905.7
584.338	47992.56
584.679	52749.79
585.021	51422.38
585.362	44849.94
585.703	38888.8
586.044	37374.18
586.385	41651.77
586.726	45959.93
587.067	43938.43
587.408	39223.92
587.749	35877.6
588.09	32996.63
588.431	29809.49
588.772	27137.17
589.113	27858.04
589.453	28289.97
589.794	26933.36
590.134	24326.36
590.475	23028.54
590.815	23204
591.156	23435.65
591.496	24067
591.837	32318.83
592.177	39606.82
592.517	44279.43
592.857	40876.87
593.198	36468.04
593.538	29931.01
593.878	27567.45
594.218	28719.05
594.558	31566.51
594.898	30161.02
595.237	27087.32
595.577	23922.72
595.917	21343.96
596.257	22880.8
596.596	23911.44
596.936	25396.24
597.276	23393.2
597.615	23696.73
597.955	30091.15
598.294	34975.81
598.633	35425.76
598.973	32800.89
599.312	32628.6
599.651	32526.82
599.991	30989.12
600.33	30345.55
600.669	28389.49
601.008	26639.96
601.347	24637.98
601.686	25843.64
602.025	25627.91
602.364	28052.86
602.702	28862.6
603.041	28935.36
603.38	26614.92
603.719	24354.58
604.057	22662.38
604.396	22599.79
604.734	24074.85
605.073	28726.67
605.411	28356.07
605.75	26750.44
606.088	23846.41
606.426	24670.13
606.764	25439.43
607.103	24346.23
607.441	22442.7
607.779	21367.3
608.117	21518.59
608.455	20012.65
608.793	19010.97
609.131	21609.45
609.469	23148.54
609.806	22847.43
610.144	19648.32
610.482	18910.97
610.819	19175.48
611.157	18812.67
611.495	17575.34
611.832	17285.5
612.17	17554.09
612.507	17973.57
612.844	17537.3
613.182	17439.46
613.519	17733.88
613.856	17786.47
614.193	18034.77
614.53	18941.02
614.867	19310.89
615.205	17511.61
615.541	16332.69
615.878	14941.55
616.215	15206.84
616.552	14887.27
616.889	15500.19
617.226	15960.26
617.562	15260.81
617.899	13514.73
618.235	12229.85
618.572	11281.92
618.908	11975.5
619.245	13079.92
619.581	13748.56
619.918	12159.74
620.254	9556.51
620.59	8916.16
620.926	10139.33
621.262	11512.76
621.599	11565.42
621.935	11674.23
622.271	12658.26
622.606	13327.53
622.942	12952.86
623.278	12068.4
623.614	13115.56
623.95	13541.53
624.285	13038.25
624.621	11872.44
624.957	11050.23
625.292	10525.93
625.628	9902.77
625.963	9652.97
626.299	10023.27
626.634	10378.82
626.969	10237.17
627.304	8861.99
627.64	7592.58
627.975	7726.86
628.31	8488.8
628.645	9258.73
628.98	8778.61
629.315	8561.77
629.65	8340.91
629.985	8393.51
630.319	7746.4
630.654	7488.18
630.989	7669.78
631.323	7317.78
631.658	6917.88
631.993	6306.92
632.327	6155.97
632.662	6182.95
632.996	6476.89
633.33	6618.92
633.665	6360.79
633.999	5937.45
634.333	5880.16
634.667	5836.64
635.001	6108.86
635.335	6529.35
635.669	7152.61
636.003	7062.19
636.337	6517.49
636.671	5840.62
637.005	5478.67
637.339	5412.56
637.672	5769.19
638.006	6202.52
638.339	6049.29
638.673	5663.14
639.006	5331.19
639.34	5243.08
639.673	5154.07
640.007	5166.91
640.34	5025.89
640.673	4904.76
641.006	4771.93
641.34	4622.21
641.673	4456.07
642.006	4261.51
642.339	4394.05
642.672	4471.7
643.004	4381.64
643.337	4227.19
643.67	4104.95
644.003	4181.51
644.336	4182.59
644.668	4141.48
645.001	4121.73
645.333	4007.46
645.666	3698.8
645.998	3594.03
646.331	3470.58
646.663	3514.47
646.995	3858.3
647.327	4583.19
647.66	5218.5
647.992	5414.16
648.324	5515.16
648.656	5368.02
648.988	5012.77
649.32	4415.09
649.652	3954.33
649.983	3765.14
650.315	3685.48
650.647	3807.52
650.979	4197.19
651.31	4494.33
651.642	4728.95
651.973	4786.43
652.305	4778.91
652.636	4690.78
652.967	4524.23
653.299	4295
653.63	4277.99
653.961	4884.65
654.292	7392.82
654.623	48994.04
654.955	68745.34
655.286	68745.34
655.616	68745.34
655.947	68745.34
656.278	68745.34
656.609	68745.34
656.94	39068.74
657.27	28152.12
657.601	20987.28
657.932	14751.01
658.262	9880.75
658.593	6735.77
658.923	4830.99
659.254	3973.85
659.584	3437.3
659.914	3172.21
660.244	2981.73
660.575	2996
660.905	2999.56
661.235	3118.26
661.565	3129.49
661.895	3139.35
662.225	3060.99
662.555	3046.73
662.884	3013.28
663.214	3197.66
663.544	3264.68
663.873	3303.49
664.203	3422.83
664.533	3573.33
664.862	3649.56
665.192	3474.94
665.521	3185.62
665.85	2962.79
666.18	2733.56
666.509	2762.45
666.838	2833.69
667.167	2962.52
667.496	2887.55
667.825	2840.56
668.154	2842.49
668.483	2930.95
668.812	3054.68
669.141	3154.14
669.47	3234.87
669.798	3206.69
670.127	3062.63
670.456	3385.71
670.784	4217.19
671.113	5041.42
671.441	5663.67
671.77	5520.76
672.098	5115.02
672.426	4280.69
672.755	3710.23
673.083	3547.72
673.411	3573.6
673.739	3436.75
674.067	3111.41
674.395	3134.15
674.723	3234.87
675.051	3380.25
675.379	3358.41
675.706	3376.16
676.034	3197.93
676.362	3169.47
676.689	3497.57
677.017	4054.59
677.344	4419.13
677.672	4344.14
677.999	4151.22
678.327	4302.02
678.654	4686.48
678.981	5002.05
679.308	5032.05
679.636	4655.29
679.963	4213.68
680.29	4031.57
680.617	4223.41
680.944	4378.67
681.271	4222.33
681.597	3702.34
681.924	3235.41
682.251	3158.24
682.578	3532.73
682.904	4028.59
683.231	4390.81
683.557	4568.66
683.884	4844.95
684.21	5156.21
684.536	5437.35
684.863	5640.53
685.189	5519.16
685.515	5013.03
685.841	4619.79
686.167	4544.43
686.493	4793.41
686.819	4635.12
687.145	4336.04
687.471	3771.93
687.797	3469.49
688.123	3408.64
688.448	3642.49
688.774	3878.65
689.1	3825.17
689.425	3531.1
689.751	3403.73
690.076	3643.85
690.402	4292.84
690.727	4504.57
691.052	4420.21
691.377	4084.65
691.703	3907.14
692.028	3806.98
692.353	4059.2
692.678	3960.03
693.003	3808.61
693.328	3254.29
693.652	2941.66
693.977	2974.59
694.302	3355.13
694.627	3543.63
694.951	3333
695.276	2847.71
695.6	2593.6
695.925	3270.69
696.249	4253.4
696.574	4805.22
696.898	4560.58
697.222	4003.67
697.546	3654.19
697.871	3531.1
698.195	3474.39
698.519	3294.2
698.843	3153.59
699.167	2915.02
699.491	2715.39
699.814	2658.93
700.138	2584.22
700.462	2596.36
700.786	2557.46
701.109	2731.08
701.433	2898.27
701.756	3114.43
702.08	3168.1
702.403	3091.14
702.726	2865.02
703.05	2661.96
703.373	2606.01
703.696	2582.29
704.019	2481.83
704.342	2260.04
704.665	2102.56
704.988	2073.14
705.311	2318.73
705.634	2897.99
705.957	3578.51
706.28	4175.02
706.602	4382.99
706.925	4245.03
707.247	3955.15
707.57	3635.14
707.892	3407.82
708.215	3134.15
708.537	2924.08
708.859	2893.6
709.182	2993.53
709.504	3154.41
709.826	3206.96
710.148	3217.36
710.47	3062.91
710.792	2865.85
711.114	2678.76
711.436	2545.05
711.758	2638.26
712.079	2676.28
712.401	2891.95
712.723	3185.07
713.044	3523.74
713.366	3696.9
713.687	3692.82
714.009	3451.21
714.33	3310.6
714.652	3196.84
714.973	2962.52
715.294	2683.17
715.615	2439.85
715.936	2266.41
716.257	2238.43
716.578	2221.53
716.899	2340.31
717.22	2645.7
717.541	2773.19
717.862	2855.68
718.182	2808.39
718.503	2878.49
718.824	2924.63
719.144	2846.06
719.465	2699.97
719.785	2764.11
720.105	2841.11
720.426	2953.73
720.746	2897.17
721.066	2815.54
721.386	2732.73
721.706	2602.42
722.026	2495.92
722.346	2443.72
722.666	2517.73
722.986	2597.73
723.306	2574.84
723.626	2509.45
723.946	2464.71
724.265	2701.62
724.585	3033.57
724.904	3164.27
725.224	3177.41
725.543	3121
725.863	3111.14
726.182	2943.3
726.501	2740.44
726.82	2751.17
727.14	2880.96
727.459	3112.78
727.778	3143.18
728.097	3134.69
728.416	3132.78
728.734	3355.68
729.053	3447.66
729.372	3439.48
729.691	3579.87
730.009	4022.09
730.328	4274.75
730.647	4309.58
730.965	4051.07
731.283	3736.87
731.602	3554.26
731.92	3683.03
732.238	3801.82
732.557	3993.91
732.875	4112.26
733.193	4625.44
733.511	4909.59
733.829	4692.93
734.147	4215.84
734.465	3758.07
734.782	3764.6
735.1	3900.09
735.418	3959.76
735.735	3968.97
736.053	3989.57
736.371	3931.83
736.688	3667.79
737.005	3339.83
737.323	3036.59
737.64	2958.13
737.957	3221.74
738.274	3828.43
738.592	4102.78
738.909	3943.76
739.226	3307.05
739.543	2860.63
739.86	2609.59
740.176	2451.45
740.493	2279.98
740.81	2195.2
741.127	2220.7
741.443	2467.2
741.76	2683.72
742.076	2683.44
742.393	2451.45
742.709	2145.85
743.025	2077.3
743.342	2095.35
743.658	2135.3
743.974	2292.99
744.29	2273.33
744.606	2232.89
744.922	2202.13
745.238	2197.14
745.554	2110.61
745.87	2084.8
746.186	2222.08
746.501	2393.97
746.817	2343.91
747.132	2065.64
747.448	1850.7
747.763	1889.67
748.079	2033.43
748.394	2382.35
748.71	2736.86
749.025	3065.65
749.34	3189.45
749.655	3132.78
749.97	2941.38
750.285	2822.14
750.6	2872.17
750.915	3114.15
751.23	2999.01
751.545	2856.23
751.859	2597.46
752.174	2518.28
752.489	2774.56
752.803	3109.49
753.118	3167.28
753.432	3004.77
753.747	2804.82
754.061	2928.75
754.375	3197.39
754.689	3443.03
755.004	3489.12
755.318	3593.76
755.632	3898.46
755.946	4095.21
756.26	4458.49
756.573	4961.06
756.887	5295.69
757.201	5074.35
757.515	4343.06
757.828	3758.62
758.142	3726.54
758.455	4252.32
758.769	4800.12
759.082	5055.07
759.396	5237.47
759.709	5357.08
760.022	5327.72
760.335	4902.62
760.648	4235.57
760.962	3673.24
761.275	3300.49
761.587	3190.27
761.9	3213.26
762.213	3377.79
762.526	3686.29
762.839	3722.46
763.151	3934
763.464	4307.69
763.776	5008.21
764.089	5337.33
764.401	5001.25
764.714	4438.81
765.026	3953.25
765.338	3525.65
765.65	3053.86
765.962	2729.43
766.275	2542.57
766.587	2462.5
766.898	2612.9
767.21	2952.09
767.522	3450.12
767.834	3786.6
768.146	3688.2
768.457	3405.64
768.769	3019.31
769.08	3000.38
769.392	3195.74
769.703	3561.89
770.015	3899.82
770.326	3948.91
770.637	3718.11
770.948	3246.35
771.26	2813.07
771.571	2726.68
771.882	2822.69
772.193	2856.78
772.504	2730.53
772.814	2603.52
773.125	2499.51
773.436	2353.04
773.747	2202.41
774.057	2203.79
774.368	2137.25
774.678	1979.24
774.989	1862.12
775.299	1810.59
775.609	1837.33
775.919	1849.87
776.23	1876.04
776.54	1853.49
776.85	1852.93
777.16	1925.85
777.47	2140.02
777.78	2392.86
778.089	2653.14
778.399	2694.46
778.709	2515.52
779.019	2242.86
779.328	1955.61
779.638	1948.93
779.947	2291.05
780.257	2833.69
780.566	3091.41
780.875	2955.93
781.185	2731.63
781.494	2569.33
781.803	2444.54
782.112	2335.33
782.421	2441.23
782.73	2503.65
783.039	2508.89
783.348	2227.63
783.656	1924.18
783.965	1842.35
784.274	1984.24
784.582	2134.47
784.891	2196.31
785.199	2074.53
785.508	1963.39
785.816	1953.66
786.124	1991.75
786.432	2181.9
786.741	2414.7
787.049	2441.23
787.357	2354.14
787.665	2359.4
787.973	2401.71
788.281	2276.65
788.588	2001.47
788.896	1796.94
789.204	1646.31
789.511	1644.08
789.819	1591
790.126	1562.5
790.434	1581.78
790.741	1642.96
791.049	1589.05
791.356	1487.26
791.663	1422.59
791.97	1453.68
792.277	1411.95
792.584	1598.27
792.891	2013.42
793.198	2379.04
793.505	2553.05
793.812	2379.31
794.119	2288.56
794.425	2159.99
794.732	1975.9
795.038	1632.91
795.345	1406.07
795.651	1254.64
795.958	1214.21
796.264	1326.47
796.57	1554.11
796.876	1567.53
797.183	1532.58
797.489	1355.35
797.795	1345.53
798.101	1383.93
798.406	1351.98
798.712	1315.53
799.018	1242.29
799.324	1202.13
799.629	1221.51
799.935	1170.94
800.24	1186.11
800.546	1169.53
800.851	1075.32
801.157	1011.7
801.462	995.93
801.767	979.3
802.072	1051.68
802.377	1168.41
802.682	1186.68
802.987	1146.49
803.292	1066.88
803.597	1038.73
803.902	1080.67
804.207	1063.22
804.511	1077.01
804.816	1156.32
805.12	1389.54
805.425	1574.52
805.729	1628.72
806.034	1450.6
806.338	1339.93
806.642	1227.41
806.946	1247.9
807.251	1239.48
807.555	1288.6
807.859	1293.09
808.162	1254.08
808.466	1187.8
808.77	1099.24
809.074	1043.24
809.378	1028.6
809.681	1010.01
809.985	1021.28
810.288	1013.11
810.592	975.92
810.895	951.4
811.198	891.9
811.502	847.59
811.805	819.07
812.108	839.4
812.411	938.15
812.714	1048.02
813.017	1176.84
813.32	1197.35
813.623	1104.02
813.926	1028.32
814.228	914.46
814.531	838.56
814.833	830.93
815.136	819.36
815.438	788
815.741	837.15
816.043	915.59
816.345	904.59
816.648	895.28
816.95	872.99
817.252	834.04
817.554	832.06
817.856	789.7
818.158	775.29
818.46	750.98
818.761	751.27
819.063	796.2
819.365	778.96
819.666	895.85
819.968	972.82
820.269	1009.45
820.571	957.32
820.872	887.67
821.173	814.56
821.475	806.65
821.776	782.64
822.077	767.38
822.378	775.01
822.679	751.55
822.98	744.76
823.281	751.83
823.581	702.91
823.882	717.34
824.183	724.12
824.483	761.72
824.784	801.56
825.084	837.43
825.385	821.33
825.685	756.35
825.985	778.68
826.286	780.66
826.586	811.17
826.886	828.96
827.186	825.29
827.486	784.05
827.786	755.51
828.086	728.08
828.386	776.7
828.685	792.24
828.985	756.35
829.285	704.33
829.584	707.72
829.884	675.47
830.183	632.44
830.482	619.7
830.782	596.76
831.081	573.53
831.38	604.12
831.679	603.27
831.978	650.85
832.277	664.15
832.576	681.13
832.875	664.72
833.174	658.49
833.472	686.79
833.771	707.72
834.07	681.69
834.368	680
834.667	672.07
834.965	651.7
835.263	666.41
835.562	625.65
835.86	615.45
836.158	601.58
836.456	570.69
836.754	562.76
837.052	564.74
837.35	573.53
837.648	568.99
837.946	568.14
838.243	551.7
838.541	568.14
838.839	600.73
839.136	577.78
839.434	598.18
839.731	592.23
840.028	570.69
840.326	572.39
840.623	564.46
840.92	571.83
841.217	539.51
841.514	566.16
841.811	546.88
842.108	554.82
842.405	541.21
842.701	529.59
842.998	541.21
843.295	550.29
843.591	566.73
843.888	543.48
844.184	533.84
844.481	515.13
844.777	512.01
845.073	532.99
845.369	529.02
845.665	517.4
845.962	553.69
846.258	527.6
846.553	528.46
846.849	513.14
847.145	538.95
847.441	547.45
847.737	542.35
848.032	542.92
848.328	551.99
848.623	512.86
848.919	489.6
849.214	517.11
849.509	501.51
849.805	510.59
850.1	530.16
850.395	531.01
850.69	502.65
850.985	513.43
851.28	492.72
851.575	525.62
851.869	520.52
852.164	545.47
852.459	586.84
852.753	589.11
853.048	625.37
853.342	650.28
853.637	673.77
853.931	669.53
854.225	670.09
854.52	659.62
854.814	638.11
855.108	634.71
855.402	629.05
855.696	606.11
855.99	594.49
856.283	576.36
856.577	591.66
856.871	566.73
857.164	565.02
857.458	553.97
857.751	547.73
858.045	548.87
858.338	528.46
858.632	544.62
858.925	515.69
859.218	535.54
859.511	520.8
859.804	531.01
860.097	521.65
860.39	508.32
860.683	519.66
860.976	504.35
861.268	507.47
861.561	519.95
861.854	522.5
862.146	510.31
862.439	503.21
862.731	495.84
863.023	512.01
863.316	503.78
863.608	515.13
863.9	525.05
864.192	497.26
864.484	523.35
864.776	520.8
865.068	502.36
865.36	511.44
865.651	507.47
865.943	528.74
866.235	491.3
866.526	478.53
866.818	485.63
867.109	486.19
867.4	506.9
867.692	496.69
867.983	491.58
868.274	497.54
868.565	507.75
868.856	483.07
869.147	480.52
869.438	470.3
869.729	471.44
870.02	466.33
870.31	483.36
870.601	470.02
870.892	497.82
871.182	500.66
871.473	479.95
871.763	498.11
872.053	476.83
872.343	512.01
872.634	501.23
872.924	495.27
873.214	493.57
873.504	479.38
873.794	481.09
874.084	489.88
874.373	479.67
874.663	488.18
874.953	477.96
875.242	494.7
875.532	468.03
875.821	485.06
876.111	499.53
876.4	488.46
876.689	478.25
876.978	510.31
877.268	470.59
877.557	504.07
877.846	473.42
878.134	498.39
878.423	498.39
878.712	498.39
