Data from FLMS007011_11-32-21-506.txt Node
Date: Thu Apr 21 11:32:21 MDT 2016
User: lab_user
Spectrometer: FLMS00701
Autoset integration time: false
Trigger mode: 0
Integration Time (sec): 5.000000E-3
Scans to average: 10
Electric dark correction enabled: true
Nonlinearity correction enabled: true
Boxcar width: 0
XAxis mode: Wavelengths
Stop averaging: false
Number of Pixels in Spectrum: 2048
>>>>>Begin Spectral Data<<<<<
178.41	25.29
178.791	25.29
179.172	25.29
179.553	-57
179.934	-65.58
180.316	-30.99
180.697	-51
181.078	-71.87
181.459	-44.14
181.84	-46.14
182.221	-18.13
182.602	8.44
182.983	-13.84
183.364	36.43
183.744	39.86
184.125	78.96
184.506	88.1
184.887	70.69
185.268	140.58
185.648	163.38
186.029	183.62
186.41	222.07
186.791	241.15
187.171	290.1
187.552	352.39
187.932	354.37
188.313	385.35
188.694	391.6
189.074	418.3
189.455	440.17
189.835	444.14
190.216	468.84
190.596	475.36
190.977	467.42
191.357	503.45
191.737	494.94
192.118	498.06
192.498	519.33
192.878	528.41
193.258	529.26
193.639	525.86
194.019	536.06
194.399	552.51
194.779	556.47
195.159	553.92
195.54	541.73
195.92	557.04
196.3	558.74
196.68	545.99
197.06	583.11
197.44	567.53
197.82	561.86
198.2	548.25
198.58	568.38
198.959	618.81
199.339	585.38
199.719	564.41
200.099	563.56
200.479	598.41
200.858	561.58
201.238	574.05
201.618	579.15
201.998	562.43
202.377	600.96
202.757	588.78
203.136	642.02
203.516	574.33
203.896	597.85
204.275	578.01
204.655	563.56
205.034	583.96
205.414	628.43
205.793	614.56
206.172	645.42
206.552	633.81
206.931	634.38
207.31	614.56
207.69	594.16
208.069	605.21
208.448	608.89
208.827	648.25
209.207	666.93
209.586	667.78
209.965	703.15
210.344	697.21
210.723	693.25
211.102	693.53
211.481	655.89
211.86	658.44
212.239	666.37
212.618	718.99
212.997	773.83
213.376	754.33
213.755	794.17
214.134	774.39
214.513	745.85
214.891	722.66
215.27	717.86
215.649	742.45
216.028	758.57
216.406	791.06
216.785	866.46
217.164	891.57
217.542	925.13
217.921	914.98
218.3	873.23
218.678	858.27
219.057	809.43
219.435	824.11
219.814	851.78
220.192	887.06
220.57	914.98
220.949	1016.16
221.327	1086.25
221.705	1111.29
222.084	1099.19
222.462	1058.67
222.84	1031.65
223.218	994.19
223.597	938.67
223.975	957.84
224.353	1007.71
224.731	1091.6
225.109	1223.71
225.487	1280.41
225.865	1369.59
226.243	1410.22
226.621	1373.52
226.999	1300.62
227.377	1206.01
227.755	1135.75
228.133	1123.66
228.511	1150.09
228.889	1198.71
229.266	1320.81
229.644	1486.66
230.022	1627.55
230.4	1697.34
230.777	1755.08
231.155	1710.74
231.533	1626.44
231.91	1521.63
232.288	1377.16
232.665	1297.53
233.043	1307.91
233.42	1329.79
233.798	1468.46
234.175	1654.64
234.553	1852.32
234.93	1972.8
235.307	2073.37
235.685	2097.8
236.062	2041.44
236.439	1944.99
236.816	1806.64
237.194	1674.18
237.571	1531.69
237.948	1466.23
238.325	1533.65
238.702	1641.8
239.079	1804.97
239.456	2007.82
239.833	2216.5
240.21	2420.18
240.587	2479.58
240.964	2527.07
241.341	2451.41
241.718	2284.91
242.095	2077.81
242.472	1936.93
242.849	1748.39
243.225	1684.79
243.602	1693.16
243.979	1793.83
244.356	2005.87
244.732	2268.58
245.109	2511.06
245.486	2762.96
245.862	2913.88
246.239	3017.89
246.615	2955.88
246.992	2781.94
247.368	2576.18
247.745	2335.29
248.121	2159.39
248.497	1922.46
248.874	1833.39
249.25	1889.63
249.626	2051.99
250.003	2287.4
250.379	2613.13
250.755	2861.68
251.131	3182.29
251.507	3347.71
251.884	3481.71
252.26	3463.71
252.636	3334.87
253.012	3122.32
253.388	2853.43
253.764	2534.52
254.14	2281.87
254.516	2127.77
254.892	2043.38
255.268	2071.7
255.643	2285.74
256.019	2509.68
256.395	2862.23
256.771	3219.23
257.147	3550.13
257.522	3789.82
257.898	3862.87
258.274	3873.45
258.649	3737.37
259.025	3595.62
259.4	3224.97
259.776	2942.71
260.151	2605.41
260.527	2343.86
260.902	2174.64
261.278	2154.67
261.653	2187.39
262.028	2409.95
262.404	2686.7
262.779	3054.91
263.154	3393.04
263.53	3796.07
263.905	3943.71
264.28	4067.82
264.655	4144.14
265.03	4018.52
265.405	3800.41
265.781	3530.78
266.156	3204.45
266.531	2919.1
266.906	2548.59
267.281	2324.22
267.655	2144.41
268.03	2123.05
268.405	2236.45
268.78	2439.8
269.155	2712.04
269.53	3058.75
269.904	3356.72
270.279	3700.39
270.654	3921.75
271.029	4072.42
271.403	4102.2
271.778	4071.61
272.152	3853.09
272.527	3657.95
272.901	3369.01
273.276	3001.16
273.65	2635.46
274.025	2428.2
274.399	2178.24
274.774	2058.65
275.148	2038.94
275.522	2145.24
275.897	2331.41
276.271	2582.52
276.645	2891.08
277.019	3205.28
277.393	3494.25
277.768	3720.51
278.142	3884.04
278.516	3958.36
278.89	3957
279.264	3829.74
279.638	3690.87
280.012	3425.52
280.386	3143.96
280.76	2750.85
281.133	2489.24
281.507	2192.66
281.881	2041.71
282.255	1861.23
282.629	1845.92
283.002	1895.75
283.376	2030.88
283.75	2243.37
284.123	2488.14
284.497	2746.72
284.87	3014.33
285.244	3258.07
285.618	3435.89
285.991	3579.28
286.364	3617.4
286.738	3638.09
287.111	3503.52
287.485	3378.3
287.858	3152.17
288.231	2909.48
288.605	2655.57
288.978	2393.09
289.351	2159.67
289.724	1960.29
290.097	1802.74
290.47	1702.92
290.843	1651.85
291.217	1680.6
291.59	1762.89
291.963	1901.32
292.336	2095.3
292.708	2272.73
293.081	2477.92
293.454	2734.06
293.827	2926.78
294.2	3076.02
294.573	3168.05
294.945	3213.21
295.318	3220.32
295.691	3208.01
296.064	3099.31
296.436	2950.94
296.809	2844.36
297.181	2640.14
297.554	2394.47
297.926	2220.38
298.299	2007.54
298.671	1891.58
299.044	1711.85
299.416	1638.45
299.788	1592.91
300.161	1607.44
300.533	1685.34
300.905	1802.19
301.278	2002.26
301.65	2216.77
302.022	2472.68
302.394	2716.44
302.766	2970.16
303.138	3220.05
303.51	3468.62
303.882	3669.38
304.254	3829.2
304.626	3947.78
304.998	4045.07
305.37	4032.34
305.742	3971.91
306.114	3875.62
306.485	3790.63
306.857	3576.01
307.229	3369.83
307.601	3158.75
307.972	2947.65
308.344	2811.1
308.716	2650.89
309.087	2613.4
309.459	2586.11
309.83	2692.49
310.202	2904.81
310.573	3219.23
310.945	3585.54
311.316	3935.85
311.687	4479.2
312.059	4902.84
312.43	5417.31
312.801	5940.86
313.172	6300.27
313.544	6737.04
313.915	7043.27
314.286	7344.41
314.657	7482.39
315.028	7559.66
315.399	7516.59
315.77	7527.3
316.141	7353.04
316.512	7132.39
316.883	6927.29
317.254	6637.57
317.625	6420.39
317.996	6346.49
318.366	6196.39
318.737	6269.88
319.108	6360.22
319.478	6545.12
319.849	6908.39
320.22	7325.58
320.59	7809.65
320.961	8455.36
321.331	9157.05
321.702	9675.75
322.072	10254.74
322.443	10879.44
322.813	11402.02
323.184	11914.08
323.554	12255.02
323.924	12603.36
324.295	12754.04
324.665	12824.93
325.035	13079.38
325.405	12966.64
325.775	12830.71
326.145	12637.58
326.515	12437.71
326.886	12241.66
327.256	12043.37
327.626	11772.81
327.995	11598.53
328.365	11473.46
328.735	11374.66
329.105	11305.71
329.475	11344.75
329.845	11318.38
330.215	11580.82
330.584	12125.64
330.954	13076.36
331.324	14451.8
331.693	15754.48
332.063	16691.05
332.432	17577.52
332.802	17840.99
333.171	17670.13
333.541	17452.27
333.91	17552.32
334.28	17645.44
334.649	17765.69
335.018	17601.97
335.388	17740.76
335.757	17673.34
336.126	17440.41
336.495	17442.39
336.865	17226.14
337.234	16858.86
337.603	16814.32
337.972	16607.37
338.341	16558.34
338.71	16457.28
339.079	16378.49
339.448	16429.29
339.817	16538.52
340.186	16549.92
340.554	16719.27
340.923	17020.65
341.292	17178.92
341.661	17565.17
342.029	17929.6
342.398	18181.52
342.767	18313.97
343.135	18743.88
343.504	18856.97
343.872	19361.81
344.241	19392.82
344.609	19463.71
344.978	19609.4
345.346	19786.06
345.715	19717.18
346.083	19729.72
346.451	19733.41
346.82	19583.81
347.188	19504.08
347.556	19470.85
347.924	19329.81
348.292	18942.21
348.66	18925.71
349.028	18802.77
349.396	18524.29
349.764	18479.66
350.132	18229.13
350.5	18269.33
350.868	18163.76
351.236	18227.89
351.604	18228.88
351.972	18392.39
352.34	18331.23
352.707	18481.88
353.075	18745.11
353.443	18807.7
353.81	18888.01
354.178	19091.71
354.545	19372.15
354.913	19430.73
355.28	19510.23
355.648	19681.99
356.015	19746.7
356.383	19808.7
356.75	19677.81
357.117	19740.79
357.485	19840.18
357.852	19708.32
358.219	19698.23
358.586	19632.53
358.954	19515.15
359.321	19382.24
359.688	19309.62
360.055	19125.2
360.422	19071.52
360.789	18863.87
361.156	18673.4
361.523	18443.18
361.89	18369.95
362.256	18286.84
362.623	18062.61
362.99	17946.14
363.357	17911.09
363.724	17994.75
364.09	17938.24
364.457	17919.23
364.823	18097.89
365.19	18094.19
365.557	18387.7
365.923	18455.26
366.29	18490.51
366.656	18701.25
367.022	18897.13
367.389	18921.52
367.755	18758.42
368.121	18780.6
368.488	18899.35
368.854	18820.02
369.22	18676.11
369.586	18680.55
369.952	18622.39
370.318	18397.56
370.684	18498.89
371.051	18343.81
371.416	18202.98
371.782	18067.3
372.148	18015.73
372.514	17808.16
372.88	17636.05
373.246	17529.35
373.612	17581.47
373.977	17481.18
374.343	17472.28
374.709	17439.42
375.074	17096.58
375.44	16883.85
375.806	16764.32
376.171	16719.03
376.537	16719.27
376.902	16573.69
377.268	16754.92
377.633	16783.63
377.998	16930.12
378.364	17269.4
378.729	17209.82
379.094	17250.12
379.459	16950.65
379.825	17099.3
380.19	17050.83
380.555	16997.9
380.92	16834.86
381.285	16882.12
381.65	17082.48
382.015	17062.95
382.38	17055.03
382.745	16833.37
383.11	16809.37
383.474	16859.85
383.839	16817.78
384.204	16728.18
384.569	16664.07
384.933	16535.06
385.298	16372.8
385.663	16285.81
386.027	16349.26
386.392	16406.74
386.756	16426.31
387.121	16390.39
387.485	16353.96
387.849	16449.1
388.214	15976.85
388.578	15739.83
388.942	15348.79
389.307	15197.34
389.671	15062.49
390.035	15046.56
390.399	15016.45
390.763	15040.34
391.127	15179.68
391.492	15459.15
391.856	15906.13
392.219	16183.19
392.583	16095.66
392.947	15575.68
393.311	15228.43
393.675	15154.8
394.039	15164.01
394.403	15224.95
394.766	15141.87
395.13	15124.7
395.494	15272.7
395.857	15397.76
396.221	15677.01
396.584	15985.78
396.948	16287.3
397.311	16883.6
397.675	17101.03
398.038	17109.44
398.401	16510.04
398.765	16109.54
399.128	15743.81
399.491	15342.07
399.854	15174.95
400.218	15097.08
400.581	14846.88
400.944	14627.86
401.307	14185.73
401.67	14199.46
402.033	13979.6
402.396	13775.54
402.759	13569.78
403.122	13624.37
403.485	13533.22
403.847	13398.17
404.21	13472.6
404.573	13591.57
404.936	13471.59
405.298	13061.3
405.661	12665.01
406.023	12274.18
406.386	12078.95
406.749	11964.59
407.111	11972.68
407.473	12293.34
407.836	12502.93
408.198	12648.65
408.561	12641.61
408.923	12779.68
409.285	12714.05
409.647	12663.75
410.009	12489.34
410.372	12583.99
410.734	12637.58
411.096	12657.21
411.458	12867.9
411.82	12980.2
412.182	13221.4
412.544	13277.84
412.906	13383.64
413.267	13292.13
413.629	13197.82
413.991	12907.85
414.353	13001.29
414.714	12612.17
415.076	12575.93
415.438	12604.37
415.799	12566.87
416.161	12260.31
416.522	12171.3
416.884	11938.83
417.245	11881.24
417.607	11641.55
417.968	11575.75
418.329	11445.85
418.691	11461.31
419.052	11274.52
419.413	11294.3
419.774	11215.17
420.135	11600.56
420.497	11849.15
420.858	12105.96
421.219	12067.6
421.58	11688.35
421.941	11267.17
422.302	10915.03
422.662	10863.68
423.023	10661.4
423.384	10667.77
423.745	10845.11
424.106	11008.03
424.466	11172.04
424.827	10964.84
425.187	10776.95
425.548	10694.75
425.909	10620.15
426.269	10931.8
426.63	11133.72
426.99	11543.6
427.35	11384.29
427.711	11594.74
428.071	11890.08
428.431	12310.22
428.792	13376.62
429.152	14230.92
429.512	14318.8
429.872	14200.46
430.232	13830.82
430.592	13058.79
430.952	12357.6
431.312	11774.58
431.672	11321.17
432.032	11258.8
432.392	11563.1
432.752	12724.36
433.111	13315.95
433.471	12966.89
433.831	11804.16
434.19	11635.73
434.55	11574.99
434.91	11178.63
435.269	11334.86
435.629	11302.41
435.988	11312.3
436.348	11004.22
436.707	10560.04
437.066	10420.09
437.426	10481.54
437.785	10571.5
438.144	10553.16
438.503	10356.07
438.862	10150.28
439.222	10100.96
439.581	9988.96
439.94	10283.34
440.299	11112.9
440.658	11755.87
441.017	11931.26
441.376	11793.8
441.734	11626.88
442.093	11619.79
442.452	11968.89
442.811	12316.27
443.169	12343.99
443.528	12151.87
443.887	12063.81
444.245	12208.12
444.604	12016.36
444.962	11905.24
445.321	12032.77
445.679	12268.63
446.038	12393.38
446.396	12209.88
446.754	11846.12
447.112	11882.25
447.471	11844.09
447.829	11706.56
448.187	11781.92
448.545	11853.7
448.903	11742.47
449.261	11700.24
449.619	11527.15
449.977	11372.63
450.335	11234.45
450.693	11111.89
451.051	11002.18
451.409	10909.94
451.766	10749.22
452.124	10454.77
452.482	10156.67
452.839	9977.45
453.197	9886.08
453.555	9679.85
453.912	9676
454.27	9851.01
454.627	10052.64
454.984	10027.07
455.342	9699.59
455.699	9449.92
456.056	9458.4
456.414	9683.95
456.771	9959.03
457.128	10041.13
457.485	10101.98
457.842	9952.12
458.199	10047.78
458.556	10320.35
458.913	10258.57
459.27	10544.24
459.627	10389.49
459.984	10413.97
460.341	10624.23
460.697	10452.73
461.054	9933.95
461.411	9621.63
461.767	9469.18
462.124	9548.25
462.481	9919.62
462.837	10161.26
463.194	10797.04
463.55	10727.58
463.907	11375.42
464.263	11821.85
464.619	12303.17
464.976	12752.28
465.332	12826.94
465.688	12192.99
466.044	11414.19
466.4	11084.21
466.756	10926.72
467.112	10975.51
467.468	11052.73
467.824	10860.62
468.18	10543.22
468.536	10496.84
468.892	10244.02
469.248	10128.56
469.604	9940.09
469.959	10025.79
470.315	10012.49
470.671	10001.49
471.026	10189.11
471.382	10287.68
471.737	10485.11
472.093	10628.3
472.448	10961.53
472.804	11262.85
473.159	11356.41
473.514	11278.58
473.87	11453.2
474.225	12044.88
474.58	12488.58
474.935	12408.75
475.29	11943.38
475.645	11945.4
476	11732.36
476.355	11597.77
476.71	11478.53
477.065	12024.43
477.42	12498.15
477.775	12458.87
478.13	12329.88
478.485	12421.09
478.839	12659.97
479.194	13387.65
479.549	13880.59
479.903	13847.58
480.258	13581.3
480.612	13999.85
480.967	14697.4
481.321	14922.34
481.675	14347
482.03	13941.1
482.384	13829.82
482.738	14143.27
483.093	14489.96
483.447	15084.39
483.801	16209.47
484.155	16680.41
484.509	20340.39
484.863	45945.95
485.217	58826.77
485.571	58237.46
485.925	36429.18
486.279	26309.48
486.632	22529.06
486.986	19520.56
487.34	16979.1
487.694	16068.87
488.047	15780.05
488.401	15870.4
488.754	15704.33
489.108	15287.62
489.461	15085.88
489.815	14790.09
490.168	15213.26
490.522	15232.16
490.875	15137.64
491.228	15030.88
491.581	15202.07
491.935	15202.07
492.288	14981.35
492.641	15262.01
492.994	15133.66
493.347	15499.16
493.7	15568.97
494.053	15487.97
494.406	14962.67
494.759	14406.14
495.111	15023.17
495.464	16407.24
495.817	17136.39
496.169	16275.65
496.522	14882
496.875	13787.55
497.227	13509.92
497.58	13385.89
497.932	13741.26
498.285	13776.54
498.637	14400.15
498.989	14852.61
499.342	14725.56
499.694	14010.34
500.046	13673.19
500.398	14296.08
500.751	14630.35
501.103	14602.68
501.455	14625.86
501.807	14545.58
502.159	14634.34
502.511	14661.26
502.862	14627.86
503.214	14265.13
503.566	13666.93
503.918	13347.04
504.27	13466.83
504.621	13492.64
504.973	13310.68
505.324	13540.48
505.676	14020.34
506.027	14137.27
506.379	13261.03
506.73	12810.6
507.082	13159.94
507.433	13592.57
507.784	13998.1
508.136	13582.81
508.487	13334.75
508.838	13081.64
509.189	13120.54
509.54	13503.66
509.891	13365.09
510.242	13345.78
510.593	13209.36
510.944	13048.25
511.295	12694.69
511.646	12396.4
511.996	12568.63
512.347	12807.58
512.698	12833.47
513.049	12639.09
513.399	12529.12
513.75	12711.29
514.1	12299.89
514.451	11773.32
514.801	11728.06
515.152	12120.34
515.502	12421.59
515.852	12658.97
516.202	12589.02
516.553	12347.27
516.903	11994.39
517.253	11622.32
517.603	11571.2
517.953	11613.21
518.303	12184.66
518.653	12408.24
519.003	12179.37
519.353	11483.09
519.703	10894.95
520.052	10710.02
520.402	10869.78
520.752	11118.99
521.102	10803.66
521.451	10594.68
521.801	10670.82
522.15	10831.89
522.5	10903.84
522.849	10915.79
523.199	11167.47
523.548	11317.12
523.897	11117.98
524.246	10767.53
524.596	10474.66
524.945	10414.48
525.294	10501.17
525.643	10471.35
525.992	10434.63
526.341	10569.97
526.69	10422.13
527.039	10247.85
527.388	9999.7
527.737	10553.92
528.086	11417.48
528.434	11925.19
528.783	11426.35
529.132	10922.14
529.48	10603.09
529.829	10545.51
530.177	10360.41
530.526	10172.51
530.874	10405.81
531.223	10485.62
531.571	10323.92
531.919	10542.2
532.268	11122.55
532.616	11989.09
532.964	12417.06
533.312	12481.28
533.66	12452.07
534.008	12468.44
534.356	12542.71
534.704	12458.36
535.052	12112.52
535.4	11675.7
535.748	11118.74
536.095	10545
536.443	10580.42
536.791	10946.29
537.139	11496
537.486	12204.08
537.834	12353.57
538.181	12467.43
538.529	12472.97
538.876	12469.7
539.223	12176.34
539.571	11791.02
539.918	11734.63
540.265	12145.06
540.613	12622.49
540.96	12433.93
541.307	12270.4
541.654	12238.13
542.001	12277.96
542.348	12245.94
542.695	12169.53
543.042	12629.03
543.388	12948.55
543.735	12993.76
544.082	13148.39
544.429	12985.72
544.775	12597.83
545.122	11914.33
545.469	11347.28
545.815	11443.32
546.162	11613.97
546.508	12071.89
546.854	12935.99
547.201	13997.85
547.547	14255.64
547.893	13721.49
548.24	12476.75
548.586	11217.71
548.932	10973.98
549.278	10831.89
549.624	11036.98
549.97	10820.45
550.316	10382.09
550.662	10140.57
551.008	11062.12
551.353	12455.09
551.699	13025.9
552.045	12521.31
552.391	11894.12
552.736	11659.26
553.082	11617.01
553.427	11280.61
553.773	10573.28
554.118	10268.53
554.464	10910.2
554.809	11697.71
555.154	12148.85
555.5	12241.91
555.845	11286.95
556.19	10752.01
556.535	10270.57
556.88	10462.93
557.225	10500.4
557.57	10232.02
557.915	9658.82
558.26	9422.95
558.605	9411.65
558.95	9695.49
559.295	10776.18
559.639	11648.64
559.984	12570.65
560.329	12804.82
560.673	12935.99
561.018	12215.43
561.362	11574.24
561.707	11040.28
562.051	11166.45
562.395	11432.43
562.74	12080.97
563.084	12390.1
563.428	12993.01
563.772	12886.5
564.117	13069.33
564.461	13181.52
564.805	12892.53
565.149	13081.64
565.493	13157.93
565.836	13725.74
566.18	14083.81
566.524	16095.16
566.868	17177.43
567.212	17889.12
567.555	18107.76
567.899	20041.87
568.242	21852.5
568.586	24728.98
568.929	28267.07
569.273	32001.7
569.616	32352.55
569.96	33520.33
570.303	35816.28
570.646	36820.08
570.989	38858.28
571.333	38729.18
571.676	36344.15
572.019	30803.98
572.362	33929.8
572.705	39117.78
573.048	43933.88
573.391	46863.87
573.733	48465.81
574.076	49697.51
574.419	47700.96
574.762	42910.82
575.104	37632.48
575.447	37442.43
575.789	41916.47
576.132	48017.01
576.474	48666.78
576.817	56346.99
577.159	63289.06
577.501	63804.23
577.844	56617.02
578.186	45267.05
578.528	40614.4
578.87	40488.2
579.212	42443.74
579.554	46096.28
579.896	45164.63
580.238	49475.82
580.58	64386.44
580.922	68769
581.264	68769
581.606	66489.43
581.947	59135.51
582.289	48531.63
582.631	39087.78
582.972	33844.2
583.314	34214.53
583.655	35828.14
583.997	42515.59
584.338	49801.23
584.679	54341.99
585.021	52537.98
585.362	45659.89
585.703	39489.95
586.044	37920.83
586.385	41928.93
586.726	46221.89
587.067	43932.62
587.408	39065.72
587.749	35750.56
588.09	32725.92
588.431	29457.03
588.772	26593.02
589.113	27224.06
589.453	27558.08
589.794	26143.3
590.134	23526.65
590.475	22284.09
590.815	22289.74
591.156	22491.26
591.496	23087.4
591.837	30982.44
592.177	37942.61
592.517	42470.68
592.857	38957.91
593.198	34579.79
593.538	28386.5
593.878	26133.72
594.218	27333.35
594.558	30006.48
594.898	28725.65
595.237	25780.03
595.577	22726.88
595.917	20393.73
596.257	21791.85
596.596	23020.4
596.936	24381.28
597.276	22461.56
597.615	22920.77
597.955	28980.06
598.294	33906.36
598.633	34177.27
598.973	31734.19
599.312	31723.6
599.651	31636.9
599.991	30222.73
600.33	29466.87
600.669	27775.22
601.008	26254.49
601.347	24242.15
601.686	25626.64
602.025	25496.32
602.364	27992.38
602.702	29119.94
603.041	29036.84
603.38	26710.62
603.719	24520.16
604.057	22818.92
604.396	22823.33
604.734	24559.67
605.073	29429
605.411	28982.27
605.75	27431.83
606.088	24465.93
606.426	25584.67
606.764	26280.76
607.103	25239.14
607.441	23267.03
607.779	22199.89
608.117	22596.8
608.455	20897.07
608.793	20102.86
609.131	22876.1
609.469	24663.95
609.806	24153.58
610.144	20807.62
610.482	20109.26
610.819	20420.77
611.157	20059.58
611.495	18865.1
611.832	18598.23
612.17	18775.91
612.507	19316.02
612.844	18912.4
613.182	18919.79
613.519	19020.54
613.856	19200.31
614.193	19471.59
614.53	20407.5
614.867	20767.32
615.205	18857.71
615.541	17545.16
615.878	15972.13
616.215	16280.85
616.552	15971.39
616.889	16593.5
617.226	17039.7
617.562	16304.15
617.899	14403.4
618.235	13031.17
618.572	11938.58
618.908	12674.56
619.245	13814.81
619.581	14446.31
619.918	12735.93
620.254	9892.74
620.59	9277.72
620.926	10503.97
621.262	11857.74
621.599	11962.83
621.935	12006.76
622.271	13015.36
622.606	13611.1
622.942	13096.7
623.278	12234.6
623.614	13215.63
623.95	13553.26
624.285	13001.8
624.621	11852.69
624.957	11042.82
625.292	10409.89
625.628	9789.79
625.963	9488.7
626.299	9887.36
626.634	10210.82
626.969	10037.81
627.304	8566.9
627.64	7371.86
627.975	7392.51
628.31	8266.2
628.645	8923.86
628.98	8565.09
629.315	8270.35
629.65	8059.85
629.985	8072.84
630.319	7434.59
630.654	7131.34
630.989	7320.09
631.323	7019.14
631.658	6643.89
631.993	6004.47
632.327	5922.29
632.662	5977.97
632.996	6254.82
633.33	6391.37
633.665	6109.08
633.999	5677.99
634.333	5699.52
634.667	5657.78
635.001	5911.42
635.335	6343.32
635.669	6886.33
636.003	6770.97
636.337	6198.77
636.671	5674.8
637.005	5290.57
637.339	5326.61
637.672	5651.66
638.006	6032.29
638.339	5918.58
638.673	5549.47
639.006	5215.24
639.34	5191.19
639.673	5048.07
640.007	5096.25
640.34	4969.59
640.673	4839.53
641.006	4759.53
641.34	4587.72
641.673	4409.92
642.006	4303.87
642.339	4423.13
642.672	4533.88
643.004	4416.66
643.337	4240.66
643.67	4141.7
644.003	4287.67
644.336	4305.22
644.668	4260.11
645.001	4221.2
645.333	4072.96
645.666	3862.05
645.998	3668.84
646.331	3594.53
646.663	3665.57
646.995	4117.62
647.327	4808.94
647.66	5498.6
647.992	5624.26
648.324	5798.63
648.656	5600.85
648.988	5222.46
649.32	4675.42
649.652	4189.84
649.983	3920.93
650.315	3976.25
650.647	4055.9
650.979	4451.17
651.31	4807.59
651.642	5098.39
651.973	5136.11
652.305	5170.34
652.636	5096.78
652.967	4815.65
653.299	4586.92
653.63	4640.99
653.961	5265.2
654.292	8080.11
654.623	53950.73
654.955	68769
655.286	68769
655.616	68769
655.947	68769
656.278	68769
656.609	68769
656.94	40950.16
657.27	29262.04
657.601	22040.32
657.932	15618.15
658.262	10530.73
658.593	7160.42
658.923	5133.17
659.254	4187.14
659.584	3616.58
659.914	3303.99
660.244	3169.97
660.575	3158.75
660.905	3163.13
661.235	3225.52
661.565	3257.79
661.895	3288.69
662.225	3216.77
662.555	3091.64
662.884	3153.82
663.214	3253.15
663.544	3349.07
663.873	3395.5
664.203	3507.34
664.533	3699.3
664.862	3742.26
665.192	3535.96
665.521	3240.02
665.85	3021.46
666.18	2777.54
666.509	2767.09
666.838	2860.58
667.167	2967.41
667.496	2925.14
667.825	2867.45
668.154	2893.83
668.483	2888.33
668.812	3020.91
669.141	3104.52
669.47	3159.57
669.798	3135.2
670.127	3031.06
670.456	3305.36
670.784	4100.57
671.113	4949.22
671.441	5485.02
671.77	5403.98
672.098	4958.07
672.426	4124.39
672.755	3550.67
673.083	3460.17
673.411	3417.06
673.739	3332.96
674.067	3041.75
674.395	2994.85
674.723	3128.62
675.051	3267.64
675.379	3204.45
675.706	3216.49
676.034	3078.21
676.362	2995.68
676.689	3349.07
677.017	3927.71
677.344	4238.23
677.672	4183.36
677.999	3950.76
678.327	4144.95
678.654	4586.65
678.981	4878.97
679.308	4818.6
679.636	4487.01
679.963	4083.25
680.29	3893.53
680.617	4108.15
680.944	4302.52
681.271	4065.65
681.597	3578.73
681.924	3134.1
682.251	3084.79
682.578	3447.89
682.904	3921.2
683.231	4337.07
683.557	4454.67
683.884	4766.51
684.21	5023.17
684.536	5326.34
684.863	5625.86
685.189	5465.3
685.515	4982.18
685.841	4571.84
686.167	4481.62
686.493	4790.41
686.819	4709.82
687.145	4280.1
687.471	3692.78
687.797	3417.88
688.123	3460.44
688.448	3741.99
688.774	3946.43
689.1	3900.59
689.425	3580.91
689.751	3457.98
690.076	3859.07
690.402	4381.06
690.727	4635.88
691.052	4519.88
691.377	4212.28
691.703	4051.57
692.028	4042.09
692.353	4201.2
692.678	4172.54
693.003	4018.79
693.328	3398.77
693.652	3068.34
693.977	3135.74
694.302	3581.46
694.627	3728.13
694.951	3516.61
695.276	2963.84
695.6	2789.92
695.925	3522.06
696.249	4644.76
696.574	5282.03
696.898	4907.94
697.222	4330.86
697.546	3977.87
697.871	3790.91
698.195	3775.96
698.519	3568.38
698.843	3440.25
699.167	3182.29
699.491	2925.69
699.814	2879.54
700.138	2894.65
700.462	2784.14
700.786	2718.1
701.109	2946.28
701.433	3209.93
701.756	3454.44
702.08	3455.26
702.403	3364.37
702.726	3045.32
703.05	2911.13
703.373	2779.19
703.696	2816.87
704.019	2640.14
704.342	2459.69
704.665	2286.85
704.988	2281.59
705.311	2497.8
705.634	3069.44
705.957	3835.72
706.28	4507.22
706.602	4700.15
706.925	4557.58
707.247	4213.63
707.57	3814.81
707.892	3649.52
708.215	3335.69
708.537	3053.27
708.859	3076.57
709.182	3110.27
709.504	3281.85
709.826	3395.77
710.148	3349.35
710.47	3159.84
710.792	2981.41
711.114	2781.67
711.436	2650.61
711.758	2701.85
712.079	2754.98
712.401	2984.7
712.723	3257.25
713.044	3608.69
713.366	3812.91
713.687	3782.76
714.009	3552.85
714.33	3422.52
714.652	3216.77
714.973	2992.66
715.294	2712.31
715.615	2417.69
715.936	2284.08
716.257	2245.86
716.578	2268.3
716.899	2360.74
717.22	2656.4
717.541	2763.23
717.862	2811.1
718.182	2745.35
718.503	2970.43
718.824	2852.06
719.144	2779.47
719.465	2629.67
719.785	2661.91
720.105	2792.12
720.426	2868.28
720.746	2807.25
721.066	2757.46
721.386	2637.11
721.706	2574.8
722.026	2455.83
722.346	2402.21
722.666	2427.37
722.986	2543.62
723.306	2508.85
723.626	2394.75
723.946	2401.11
724.265	2626.64
724.585	2948.75
724.904	3050.25
725.224	3029.41
725.543	3015.97
725.863	2950.94
726.182	2764.89
726.501	2658.88
726.82	2617.54
727.14	2773.14
727.459	2950.94
727.778	2957.81
728.097	3009.94
728.416	2988.54
728.734	3219.23
729.053	3311.65
729.372	3281.85
729.691	3403.41
730.009	3791.18
730.328	4051.03
730.647	4128.99
730.965	3889.46
731.283	3610.87
731.602	3392.22
731.92	3585.54
732.238	3683.8
732.557	3888.65
732.875	4002.81
733.193	4505.06
733.511	4770.27
733.829	4560.27
734.147	4085.69
734.465	3668.29
734.782	3699.03
735.1	3785.74
735.418	3872.91
735.735	3916.59
736.053	3962.69
736.371	3927.71
736.688	3624.21
737.005	3306.18
737.323	2978.94
737.64	2935.3
737.957	3245.49
738.274	3826.76
738.592	4196.33
738.909	3996.3
739.226	3342.79
739.543	2905.09
739.86	2573.69
740.176	2449.47
740.493	2299.03
740.81	2202.64
741.127	2301.52
741.443	2552.45
741.76	2769.01
742.076	2714.79
742.393	2512.71
742.709	2236.72
743.025	2189.89
743.342	2141.64
743.658	2252.51
743.974	2377.05
744.29	2443.39
744.606	2339.99
744.922	2316.19
745.238	2298.48
745.554	2196.26
745.87	2194.88
746.186	2351.33
746.501	2568.45
746.817	2462.18
747.132	2191
747.448	2025.6
747.763	1970.57
748.079	2184.07
748.394	2613.68
748.71	2968.51
749.025	3332.14
749.34	3487.98
749.655	3460.17
749.97	3166.14
750.285	3057.38
750.6	3235.92
750.915	3437.25
751.23	3278.85
751.545	3099.86
751.859	2821.55
752.174	2709.28
752.489	3001.44
752.803	3414.87
753.118	3469.17
753.432	3254.79
753.747	3079.03
754.061	3228.8
754.375	3457.17
754.689	3772.16
755.004	3800.69
755.318	3966.22
755.632	4347.6
755.946	4640.99
756.26	4938.77
756.573	5419.45
756.887	5839.78
757.201	5612.82
757.515	4755.77
757.828	4137.1
758.142	4051.84
758.455	4676.76
758.769	5301.25
759.082	5540.15
759.396	5683.04
759.709	5818.81
760.022	5770.74
760.335	5290.84
760.648	4540.34
760.962	3964.32
761.275	3522.06
761.587	3463.44
761.9	3455.26
762.213	3649.79
762.526	3922.29
762.839	3953.2
763.151	4117.08
763.464	4602.26
763.776	5349.56
764.089	5654.59
764.401	5322.07
764.714	4793.9
765.026	4166.86
765.338	3660.67
765.65	3227.98
765.962	2888.88
766.275	2636.56
766.587	2604.58
766.898	2765.16
767.21	3126.16
767.522	3610.05
767.834	3975.98
768.146	3864.49
768.457	3556.67
768.769	3171.06
769.08	3071.09
769.392	3262.72
769.703	3689.24
770.015	3983.29
770.326	4029.63
770.637	3769.44
770.948	3321.48
771.26	2838.59
771.571	2768.19
771.882	2841.34
772.193	2900.14
772.504	2739.29
772.814	2623.05
773.125	2520.72
773.436	2352.72
773.747	2197.1
774.057	2142.19
774.368	2107.79
774.678	1970.57
774.989	1877.1
775.299	1806.37
775.609	1804.97
775.919	1850.1
776.23	1863.46
776.54	1810.55
776.85	1831.72
777.16	1858.17
777.47	2111.4
777.78	2339.44
778.089	2583.9
778.399	2610.65
778.709	2447.26
779.019	2187.12
779.328	1890.19
779.638	1915.23
779.947	2274.67
780.257	2779.47
780.566	2981.13
780.875	2883.11
781.185	2577.56
781.494	2477.09
781.803	2394.2
782.112	2271.9
782.421	2388.39
782.73	2388.39
783.039	2419.35
783.348	2117.78
783.656	1837.57
783.965	1751.46
784.274	1899.93
784.582	2030.88
784.891	2049.77
785.199	2036.99
785.508	1912.17
785.816	1843.97
786.124	1928.58
786.432	2133.59
786.741	2274.11
787.049	2321.17
787.357	2308.44
787.665	2248.08
787.973	2282.14
788.281	2190.17
788.588	1923.85
788.896	1711.57
789.204	1595.71
789.511	1572.23
789.819	1533.65
790.126	1554.9
790.434	1517.43
790.741	1559.65
791.049	1498.69
791.356	1413.3
791.663	1390.05
791.97	1373.52
792.277	1447.47
792.584	1545.68
792.891	1949.44
793.198	2319.24
793.505	2418.25
793.812	2317.02
794.119	2214.56
794.425	2126.1
794.732	1913
795.038	1630.9
795.345	1335.67
795.651	1206.86
795.958	1189.16
796.264	1316.32
796.57	1524.7
796.876	1572.51
797.183	1514.91
797.489	1384.73
797.795	1342.12
798.101	1368.75
798.406	1318.29
798.712	1311.84
799.018	1226.24
799.324	1217.81
799.629	1205.73
799.935	1171.74
800.24	1178.76
800.546	1156.28
800.851	1102.01
801.157	1018.41
801.462	1030.52
801.767	1031.08
802.072	1078.37
802.377	1216.13
802.682	1243.93
802.987	1209.67
803.292	1088.5
803.597	1089.63
803.902	1069.09
804.207	1099.19
804.511	1143.35
804.816	1258.8
805.12	1445.79
805.425	1661.9
805.729	1670.27
806.034	1568.04
806.338	1409.66
806.642	1329.5
806.946	1311.28
807.251	1331.19
807.555	1344.65
807.859	1374.92
808.162	1351.66
808.466	1244.77
808.77	1178.76
809.074	1116.63
809.378	1088.22
809.681	1051.07
809.985	1113.82
810.288	1092.72
810.592	1043.47
810.895	1003.48
811.198	951.92
811.502	880.85
811.805	837.38
812.108	889.88
812.411	990.53
812.714	1157.96
813.017	1295.29
813.32	1282.94
813.623	1236.06
813.926	1056.98
814.228	982.64
814.531	879.72
814.833	848.11
815.136	832.02
815.438	863.92
815.741	937.82
816.043	979.54
816.345	974.18
816.648	948.25
816.95	931.9
817.252	894.39
817.554	894.67
817.856	823.55
818.158	820.44
818.46	818.75
818.761	827.5
819.063	828.35
819.365	859.12
819.666	973.9
819.968	1065.99
820.269	1067.68
820.571	1018.13
820.872	932.47
821.173	852.91
821.475	816.49
821.776	814.51
822.077	798.69
822.378	800.39
822.679	794.45
822.98	789.93
823.281	767.33
823.581	792.76
823.882	748.11
824.183	787.96
824.483	799.26
824.784	841.62
825.084	875.2
825.385	880.57
825.685	808.3
825.985	791.63
826.286	830.61
826.586	834.56
826.886	887.34
827.186	829.48
827.486	819.59
827.786	752.35
828.086	773.55
828.386	828.06
828.685	826.93
828.985	787.67
829.285	783.72
829.584	709.09
829.884	715.31
830.183	687.31
830.482	626.73
830.782	628.15
831.081	625.88
831.38	619.65
831.679	581.13
831.978	661.27
832.277	670.89
832.576	683.34
832.875	690.98
833.174	693.81
833.472	714.18
833.771	720.12
834.07	706.82
834.368	698.62
834.667	659.57
834.965	667.5
835.263	689.57
835.562	640.89
835.86	621.35
836.158	616.82
836.456	569.51
836.754	595.86
837.052	577.73
837.35	564.41
837.648	608.89
837.946	567.53
838.243	569.51
838.541	597
838.839	591.33
839.136	612.86
839.434	618.52
839.731	578.3
840.028	606.06
840.326	616.82
840.623	591.61
840.92	577.16
841.217	545.14
841.514	568.66
841.811	557.04
842.108	518.48
842.405	563.56
842.701	555.06
842.998	554.21
843.295	563.28
843.591	539.47
843.888	533.23
844.184	542.87
844.481	534.93
844.777	529.26
845.073	551.37
845.369	527.56
845.665	527.84
845.962	540.6
846.258	529.83
846.553	537.76
846.849	549.1
847.145	553.92
847.441	569.51
847.737	557.32
848.032	540.32
848.328	544.29
848.623	513.38
848.919	523.59
849.214	548.25
849.509	511.11
849.805	544.29
850.1	530.68
850.395	545.14
850.69	507.71
850.985	499.76
851.28	513.38
851.575	551.94
851.869	516.78
852.164	553.36
852.459	549.1
852.753	597.28
853.048	627.02
853.342	644.85
853.637	659.86
853.931	627.3
854.225	674.01
854.52	610.31
854.814	603.79
855.108	596.43
855.402	593.03
855.696	560.44
855.99	618.24
856.283	579.43
856.577	609.18
856.871	555.34
857.164	571.5
857.458	571.5
857.751	560.44
858.045	567.24
858.338	526.99
858.632	561.29
858.925	534.36
859.218	561.01
859.511	531.53
859.804	523.59
860.097	534.08
860.39	523.87
860.683	521.6
860.976	521.04
861.268	508.56
861.561	495.79
861.854	505.72
862.146	503.45
862.439	520.47
862.731	498.63
863.023	511.68
863.316	525.29
863.608	540.03
863.9	540.32
864.192	536.63
864.484	507.42
864.776	509.12
865.068	518.77
865.36	496.36
865.651	506
865.943	504.02
866.235	499.2
866.526	476.21
866.818	501.75
867.109	513.66
867.4	511.68
867.692	507.14
867.983	472.81
868.274	476.5
868.565	498.63
868.856	506.85
869.147	477.35
869.438	519.33
869.729	488.13
870.02	494.66
870.31	465.43
870.601	469.69
870.892	495.51
871.182	507.71
871.473	487
871.763	514.8
872.053	528.41
872.343	486.71
872.634	513.95
872.924	511.39
873.214	490.69
873.504	515.36
873.794	482.46
874.084	519.33
874.373	488.98
874.663	492.39
874.953	487.28
875.242	500.9
875.532	536.35
875.821	500.61
876.111	508.27
876.4	506.29
876.689	497.49
876.978	511.96
877.268	489.27
877.557	489.27
877.846	488.13
878.134	484.44
878.423	484.44
878.712	484.44
