Data from FLMS007011_10-52-21-864.txt Node
Date: Thu Apr 21 10:52:21 MDT 2016
User: lab_user
Spectrometer: FLMS00701
Autoset integration time: false
Trigger mode: 0
Integration Time (sec): 5.000000E-3
Scans to average: 10
Electric dark correction enabled: true
Nonlinearity correction enabled: true
Boxcar width: 0
XAxis mode: Wavelengths
Stop averaging: false
Number of Pixels in Spectrum: 2048
>>>>>Begin Spectral Data<<<<<
178.41	27.74
178.791	27.74
179.172	27.74
179.553	-40.83
179.934	-58.56
180.316	-29.4
180.697	-70.86
181.078	-26.26
181.459	-59.13
181.84	-55.41
182.221	-11.11
182.602	-16.25
182.983	-17.68
183.364	7.17
183.744	21.46
184.125	68.85
184.506	94.25
184.887	110.22
185.268	155.56
185.648	141.88
186.029	175.8
186.41	219.95
186.791	233.05
187.171	282.58
187.552	415.05
187.932	468.14
188.313	501.62
188.694	518.36
189.074	540.47
189.455	568.82
189.835	553.23
190.216	591.2
190.596	623.78
190.977	634.82
191.357	667.09
191.737	693.12
192.118	665.39
192.498	690.58
192.878	726.21
193.258	759.57
193.639	744.59
194.019	765.79
194.399	782.46
194.779	792.63
195.159	814.1
195.54	825.11
195.92	838.95
196.3	856.73
196.68	874.23
197.06	895.39
197.44	891.73
197.82	892.85
198.2	924.44
198.58	957.71
198.959	959.12
199.339	974.34
199.719	1019.41
200.099	1026.45
200.479	1029.55
200.858	1084.44
201.238	1078.81
201.618	1086.13
201.998	1110.88
202.377	1119.6
202.757	1159.81
203.136	1197.74
203.516	1208.7
203.896	1255.87
204.275	1267.38
204.655	1310.31
205.034	1353.77
205.414	1377.88
205.793	1370.03
206.172	1435.58
206.552	1464.42
206.931	1471.42
207.31	1523.18
207.69	1542.2
208.069	1636.65
208.448	1653.96
208.827	1673.78
209.207	1719.82
209.586	1789.24
209.965	1811.81
210.344	1867.24
210.723	1917.61
211.102	2007.42
211.481	2024.37
211.86	2069.36
212.239	2141.24
212.618	2260.98
212.997	2293.65
213.376	2317.18
213.755	2353.42
214.134	2457.64
214.513	2519.77
214.891	2590.12
215.27	2633.96
215.649	2765.86
216.028	2815.1
216.406	2901.12
216.785	2979.91
217.164	3093.16
217.542	3184.9
217.921	3290.21
218.3	3363.97
218.678	3496.04
219.057	3576.16
219.435	3662.73
219.814	3772.58
220.192	3929.22
220.57	3986.7
220.949	4158.08
221.327	4287.27
221.705	4419.51
222.084	4467.76
222.462	4657.55
222.84	4850.42
223.218	5042.86
223.597	5140.27
223.975	5324.62
224.353	5516.6
224.731	5661.92
225.109	5879.2
225.487	6049.92
225.865	6274.26
226.243	6430.04
226.621	6724.83
226.999	6844.97
227.377	7100.83
227.755	7222.89
228.133	7542.84
228.511	7735.56
228.889	7981.77
229.266	8145.7
229.644	8442.56
230.022	8736.36
230.4	8816.92
230.777	9119.86
231.155	9307.18
231.533	9532.48
231.91	9851.15
232.288	10053.8
232.665	10252.59
233.043	10554.57
233.42	10857.46
233.798	11001.82
234.175	11297.74
234.553	11539.44
234.93	11807.33
235.307	12072.28
235.685	12289.95
236.062	12546.12
236.439	12748.64
236.816	13116.41
237.194	13288.51
237.571	13515.82
237.948	13733.64
238.325	13945.24
238.702	14187.86
239.079	14544.72
239.456	14653.42
239.833	14918.25
240.21	15129.32
240.587	15424.74
240.964	15633.69
241.341	15918.43
241.718	16314.7
242.095	16378.14
242.472	16552.53
242.849	16827.32
243.225	17082.37
243.602	17294.25
243.979	17541.1
244.356	17708.05
244.732	17980.08
245.109	18277.36
245.486	18378.71
245.862	18610.45
246.239	18947.03
246.615	19098.74
246.992	19242.05
247.368	19454.25
247.745	19752.49
248.121	19985.2
248.497	20079.15
248.874	20380.59
249.25	20674.08
249.626	20922.51
250.003	21039.46
250.379	21383.6
250.755	21471.28
251.131	21733.55
251.507	21817.77
251.884	22132.27
252.26	22320.07
252.636	22521.1
253.012	22676.95
253.388	22982.75
253.764	23181.28
254.14	23135.63
254.516	23364.58
254.892	23495.37
255.268	23692.17
255.643	23863.44
256.019	23936.56
256.395	24055.81
256.771	24312.47
257.147	24425.34
257.522	24448.89
257.898	24749.48
258.274	24692.06
258.649	24931.31
259.025	25003.45
259.4	25064.31
259.776	25330.32
260.151	25326.88
260.527	25400.26
260.902	25597.08
261.278	25618.19
261.653	25705.8
262.028	25717.58
262.404	25951.98
262.779	26072.99
263.154	26185.9
263.53	26488.82
263.905	26083.05
264.28	26346.93
264.655	26322.38
265.03	26327.29
265.405	26427.94
265.781	26483.91
266.156	26499.38
266.531	26560.75
266.906	26697.01
267.281	26851.94
267.655	26563.7
268.03	26596.35
268.405	26606.66
268.78	26727.7
269.155	26758.15
269.53	26589.23
269.904	26781.23
270.279	26813.64
270.654	26839.42
271.029	26685.23
271.403	26874.77
271.778	26695.78
272.152	26842.12
272.527	26713.22
272.901	27083
273.276	27105.84
273.65	27034.38
274.025	27053.53
274.399	26937.88
274.774	26941.31
275.148	27134.08
275.522	27133.09
275.897	27009.33
276.271	26996.56
276.645	27312.61
277.019	27248.02
277.393	27430.5
277.768	27241.39
278.142	27162.56
278.516	27210.69
278.89	27167.72
279.264	27143.65
279.638	27406.92
280.012	27415.27
280.386	27109.76
280.76	27340.36
281.133	27363.69
281.507	27233.29
281.881	27410.6
282.255	27345.77
282.629	27137.51
283.002	27262.51
283.376	27317.28
283.75	27089.63
284.123	27351.9
284.497	27259.32
284.87	27296.4
285.244	27189.08
285.618	27105.84
285.991	26879.19
286.364	26951.38
286.738	27076.86
287.111	27122.29
287.485	26869.62
287.858	26776.32
288.231	26702.9
288.605	26838.43
288.978	26901.54
289.351	26598.81
289.724	26559.77
290.097	26531.54
290.47	26329.99
290.843	26349.88
291.217	26258.31
291.59	25951.24
291.963	26083.54
292.336	25912.46
292.708	25883.5
293.081	25739.18
293.454	25967.69
293.827	25748.75
294.2	25442.47
294.573	25405.9
294.945	25194.86
295.318	25407.38
295.691	25264.3
296.064	25245.9
296.436	25123.69
296.809	25166.15
297.181	25009.83
297.554	24789.97
297.926	24829.96
298.299	24908.49
298.671	25044.92
299.044	24895.24
299.416	24687.15
299.788	24741.14
300.161	24698.93
300.533	24661.63
300.905	25010.32
301.278	24777.45
301.65	24906.52
302.022	24795.12
302.394	24676.85
302.766	24717.58
303.138	24594.4
303.51	24713.16
303.882	24803.95
304.254	24639.3
304.626	24814.01
304.998	24839.04
305.37	24527.41
305.742	24627.04
306.114	24640.29
306.485	24793.65
306.857	24895.24
307.229	24662.37
307.601	24536.74
307.972	24528.89
308.344	24657.46
308.716	24493.55
309.087	24688.13
309.459	24439.08
309.83	24549.01
310.202	24458.46
310.573	24607.9
310.945	24509.26
311.316	24355.65
311.687	24631.45
312.059	24423.37
312.43	24404.97
312.801	24517.35
313.172	24227.32
313.544	24434.17
313.915	24453.31
314.286	24364.98
314.657	24350.5
315.028	24336.76
315.399	24301.67
315.77	24435.89
316.141	24180.7
316.512	24368.41
316.883	24129.42
317.254	24189.54
317.625	23826.14
317.996	24194.2
318.366	24096.54
318.737	23990.05
319.108	24090.16
319.478	23948.09
319.849	23890.43
320.22	23945.39
320.59	23963.31
320.961	23743.94
321.331	23865.16
321.702	23628.12
322.072	23482.37
322.443	23670.33
322.813	23551.57
323.184	23550.58
323.554	23383.48
323.924	23409
324.295	23298.08
324.665	23091.95
325.035	23242.38
325.405	23050.72
325.775	22949.12
326.145	22933.91
326.515	22736.35
326.886	22565.77
327.256	22623.69
327.626	22262.13
327.995	22202.48
328.365	22051.26
328.735	21764.49
329.105	21363.46
329.475	21028.89
329.845	20527.84
330.215	20837.49
330.584	21352.9
330.954	22333.08
331.324	23375.63
331.693	23995.69
332.063	24432.94
332.432	24844.69
332.802	24508.27
333.171	23971.65
333.541	23167.53
333.91	22787.64
334.28	22666.15
334.649	22457.03
335.018	22299.69
335.388	22329.64
335.757	22195.12
336.126	22117.05
336.495	22141.6
336.865	21881.12
337.234	21740.18
337.603	21750
337.972	21766.45
338.341	21804.51
338.71	21772.59
339.079	21762.53
339.448	21804.76
339.817	21667.01
340.186	21680.27
340.554	21688.61
340.923	21634.59
341.292	21446.23
341.661	21556.99
342.029	21516.96
342.398	21410.37
342.767	21290.27
343.135	21399.57
343.504	21164.99
343.872	21315.32
344.241	21423.15
344.609	21198.16
344.978	21144.85
345.346	21345.29
345.715	21202.33
346.083	21053.95
346.451	21248.76
346.82	21098.91
347.188	21195.21
347.556	20926.2
347.924	20956.91
348.292	20770.9
348.66	20835.77
349.028	20872.39
349.396	20654.91
349.764	20719.54
350.132	20670.14
350.5	20710.2
350.868	20658.1
351.236	20638.44
351.604	20493.67
351.972	20520.96
352.34	20423.12
352.707	20408.62
353.075	20436.89
353.443	20324.54
353.81	20214.88
354.178	20188.08
354.545	20269.96
354.913	20162.76
355.28	20049.64
355.648	20013.24
356.015	20087.75
356.383	20130.79
356.75	19942.16
357.117	19921.49
357.485	19953.96
357.852	19947.81
358.219	19930.1
358.586	19816.46
358.954	19743.39
359.321	19657.52
359.688	19753.97
360.055	19582.47
360.422	19724.69
360.789	19567.21
361.156	19600.68
361.523	19502.98
361.89	19429.39
362.256	19530.3
362.623	19340.28
362.99	19321.08
363.357	19334.13
363.724	19417.08
364.09	19199.7
364.457	19225.06
364.823	19317.88
365.19	19247.22
365.557	19374.5
365.923	19245.99
366.29	19128.79
366.656	19267.66
367.022	19210.05
367.389	19141.84
367.755	18961.07
368.121	19002.94
368.488	19054.41
368.854	18906.13
369.22	18709.77
369.586	18637.07
369.952	18519.98
370.318	18393.76
370.684	18338.27
371.051	18398.69
371.416	18216.44
371.782	18244.31
372.148	18262.32
372.514	18149.34
372.88	18140.46
373.246	17960.34
373.612	18184.87
373.977	18195.97
374.343	18341.73
374.709	18440.11
375.074	18240.36
375.44	18083.23
375.806	17978.11
376.171	18064.97
376.537	18259.36
376.902	18103.95
377.268	18310.9
377.633	18256.15
377.998	18409.78
378.364	18697.44
378.729	18664.91
379.094	18396.71
379.459	17993.41
379.825	18047.7
380.19	17935.17
380.555	17677.19
380.92	17422.02
381.285	17438.57
381.65	17621.87
382.015	17621.62
382.38	17412.38
382.745	17227.76
383.11	17244.32
383.474	17303.64
383.839	17272.75
384.204	17195.62
384.569	17092.51
384.933	17048.99
385.298	16939.9
385.663	16940.4
386.027	17045.52
386.392	17229.49
386.756	17336.76
387.121	17392.37
387.485	17687.31
387.849	17711.02
388.214	17350.36
388.578	17176.83
388.942	16901.06
389.307	17046.76
389.671	16896.11
390.035	17119.22
390.399	17016.34
390.763	17286.59
391.127	17501.08
391.492	17939.36
391.856	18304.49
392.219	18641.99
392.583	18378.96
392.947	17753.48
393.311	17282.39
393.675	17311.31
394.039	17128.62
394.403	17121.94
394.766	16852.81
395.13	16720.65
395.494	16871.62
395.857	16879.53
396.221	17132.57
396.584	17415.35
396.948	17693.73
397.311	18223.1
397.675	18461.07
398.038	18483.01
398.401	17836.93
398.765	17434.37
399.128	16946.83
399.491	16645.64
399.854	16518.6
400.218	16483.18
400.581	16317.18
400.944	16227.7
401.307	15809.48
401.67	15893.37
402.033	15850.68
402.396	15833.31
402.759	15862.84
403.122	15850.68
403.485	16077.19
403.847	16238.36
404.21	16513.65
404.573	16568.13
404.936	16642.17
405.298	16265.63
405.661	15755.86
406.023	15355.89
406.386	15278.81
406.749	15172.61
407.111	15161.41
407.473	15569.11
407.836	15876.24
408.198	15828.84
408.561	15851.92
408.923	15794.34
409.285	15703.72
409.647	15401.63
410.009	15180.07
410.372	15186.04
410.734	15045.95
411.096	15101.95
411.458	15189.77
411.82	15340.22
412.182	15533.58
412.544	15429.46
412.906	15568.86
413.267	15493.58
413.629	15286.02
413.991	15036.5
414.353	15018.08
414.714	14812.9
415.076	14706.01
415.438	14839.55
415.799	14827.59
416.161	14586.86
416.522	14462.91
416.884	14393.81
417.245	14356.87
417.607	14401.54
417.968	14382.83
418.329	14441.96
418.691	14549.96
419.052	14581.37
419.413	14750.11
419.774	14886.12
420.135	15596.68
420.497	16105.96
420.858	16636.23
421.219	16477.48
421.58	16015.43
421.941	15570.6
422.302	15121.35
422.662	14898.57
423.023	14741.64
423.384	14722.21
423.745	14938.91
424.106	14859.97
424.466	14917.5
424.827	14574.89
425.187	14171.13
425.548	13947.74
425.909	13772.17
426.269	13988.99
426.63	14137.91
426.99	14510.06
427.35	14268.01
427.711	14503.32
428.071	14717.47
428.431	15420.02
428.792	16390.77
429.152	17381.99
429.512	17419.55
429.872	17086.82
430.232	16628.06
430.592	15661.26
430.952	14821.12
431.312	14135.91
431.672	13809.2
432.032	13816.95
432.392	14367.36
432.752	15815.44
433.111	16391.52
433.471	15976.24
433.831	14794.71
434.19	14698.28
434.55	14798.95
434.91	14430.73
435.269	14886.62
435.629	14987.46
435.988	15053.67
436.348	14673.86
436.707	14185.12
437.066	14253.28
437.426	14488.11
437.785	14563.42
438.144	14673.11
438.503	14282.74
438.862	14208.84
439.222	13991.24
439.581	13891.23
439.94	14321.68
440.299	15346.94
440.658	16139.44
441.017	16118.11
441.376	15776.71
441.734	15363.84
442.093	15310.14
442.452	15563.39
442.811	15845.47
443.169	15748.66
443.528	15301.69
443.887	15149.72
444.245	15048.19
444.604	14690.56
444.962	14565.17
445.321	14610.05
445.679	14743.39
446.038	14856.73
446.396	14406.03
446.754	14089.94
447.112	13972.24
447.471	13789.44
447.829	13711.62
448.187	13770.92
448.545	13864.98
448.903	13754.66
449.261	13703.61
449.619	13490.77
449.977	13370.49
450.335	13068.72
450.693	13095.83
451.051	13086.79
451.409	12952.21
451.766	12874.58
452.124	12562.73
452.482	12237.01
452.839	12033.66
453.197	11984.18
453.555	11934.43
453.912	11897.55
454.27	12289.7
454.627	12621.87
454.984	12543.86
455.342	12177.74
455.699	12010.44
456.056	12063.45
456.414	12408.13
456.771	12775.55
457.128	12831.6
457.485	12888.9
457.842	12853.97
458.199	12808.48
458.556	13149.04
458.913	13096.84
459.27	13249.64
459.627	12843.67
459.984	12979.33
460.341	13066.96
460.697	12679.73
461.054	11953.88
461.411	11482.97
461.767	11326.89
462.124	11361.36
462.481	11667.75
462.837	12022.56
463.194	12475.12
463.55	12350.18
463.907	13012.23
464.263	13412.6
464.619	13948.99
464.976	14274.51
465.332	14224.32
465.688	13465.72
466.044	12581.36
466.4	12234.74
466.756	12078.59
467.112	12099.28
467.468	12132.84
467.824	11885.42
468.18	11499.94
468.536	11473.1
468.892	11161.27
469.248	11020.87
469.604	10935.25
469.959	10931.18
470.315	10968.28
470.671	11003.34
471.026	11243.72
471.382	11260.46
471.737	11599.94
472.093	11891.99
472.448	12369.58
472.804	12689.04
473.159	12817.02
473.514	12740.6
473.87	13039.85
474.225	13817.95
474.58	14431.48
474.935	14185.86
475.29	13898.24
475.645	13753.91
476	13640.28
476.355	13424.13
476.71	13461.21
477.065	14325.68
477.42	14712.99
477.775	14662.64
478.13	14408.03
478.485	14623.26
478.839	14952.36
479.194	15685.84
479.549	16243.56
479.903	16086.37
480.258	15794.34
480.612	16312.47
480.967	17016.09
481.321	16916.4
481.675	16256.21
482.03	15697.02
482.384	15641.39
482.738	15794.09
483.093	16177.62
483.447	16819.9
483.801	17863.34
484.155	18294.62
484.509	24841.74
484.863	52579.13
485.217	62945.58
485.571	59838.62
485.925	37038.35
486.279	27509.34
486.632	23557.95
486.986	20065.13
487.34	17567.78
487.694	16768.92
488.047	16520.58
488.401	16515.38
488.754	16292.89
489.108	15802.78
489.461	15593.45
489.815	15371.8
490.168	15698.01
490.522	15803.03
490.875	15703.72
491.228	15527.12
491.581	15663.49
491.935	15640.15
492.288	15473.2
492.641	15744.19
492.994	15752.63
493.347	16206.88
493.7	16115.88
494.053	16017.17
494.406	15436.92
494.759	14944.64
495.111	15975.25
495.464	17432.4
495.817	18021.05
496.169	16930.01
496.522	15573.33
496.875	14496.84
497.227	14439.46
497.58	14476.38
497.932	14748.37
498.285	14998.41
498.637	15677.15
498.989	16016.67
499.342	15820.65
499.694	15188.03
500.046	14914.51
500.398	15724.58
500.751	16038.25
501.103	16102.49
501.455	16035.03
501.807	16150.6
502.159	15927.86
502.511	16036.02
502.862	15873.51
503.214	15441.14
503.566	14820.87
503.918	14632.23
504.27	14601.57
504.621	14564.42
504.973	14337.41
505.324	14680.34
505.676	15097.72
506.027	15037.99
506.379	13908.99
506.73	13609.49
507.082	13874.23
507.433	14361.87
507.784	14540.73
508.136	14044.47
508.487	13831.96
508.838	13504.05
509.189	13681.84
509.54	13989.49
509.891	13650.05
510.242	13669.57
510.593	13465.97
510.944	13309.82
511.295	12831.1
511.646	12560.47
511.996	12714.44
512.347	12936.63
512.698	12842.91
513.049	12738.33
513.399	12630.93
513.75	12629.92
514.1	12218.09
514.451	11790.65
514.801	11757.28
515.152	12031.64
515.502	12351.44
515.852	12574.06
516.202	12546.37
516.553	12274.57
516.903	11723.14
517.253	11560.2
517.603	11475.38
517.953	11713.79
518.303	12285.66
518.653	12422.24
519.003	12094.24
519.353	11339.82
519.703	10795.66
520.052	10706.35
520.402	10956.34
520.752	11177.76
521.102	10848.81
521.451	10655.18
521.801	10813.72
522.15	11016.04
522.5	11031.79
522.849	11149.85
523.199	11430.54
523.548	11527.8
523.897	11332.21
524.246	10983.78
524.596	10732.56
524.945	10762.08
525.294	10811.94
525.643	10860.77
525.992	10829.49
526.341	10947.7
526.69	10953.54
527.039	10631.5
527.388	10502.33
527.737	11234.59
528.086	11987.21
528.434	12504.33
528.783	11831.85
529.132	11410.78
529.48	11065.57
529.829	11057.69
530.177	10764.11
530.526	10671.47
530.874	10866.61
531.223	10857.97
531.571	10810.41
531.919	10954.31
532.268	11657.12
532.616	12507.6
532.964	12798.17
533.312	12732.3
533.66	12726.51
534.008	12735.82
534.356	12699.86
534.704	12471.6
535.052	12196.41
535.4	11615.63
535.748	11074.71
536.095	10551.26
536.443	10603.23
536.791	11027.98
537.139	11644.47
537.486	11976.35
537.834	12229.44
538.181	12346.65
538.529	12277.6
538.876	12289.95
539.223	11910.18
539.571	11419.14
539.918	11539.19
540.265	11930.39
540.613	12319.19
540.96	12061.93
541.307	11870.77
541.654	11981.4
542.001	12069.5
542.348	11942.76
542.695	11994.53
543.042	12434.33
543.388	12514.65
543.735	12725.01
544.082	12762.47
544.429	12580.85
544.775	12053.6
545.122	11409.51
545.469	11025.69
545.815	11172.69
546.162	11313.96
546.508	11777.25
546.854	12704.64
547.201	13624.26
547.547	13850.72
547.893	13253.15
548.24	11886.94
548.586	10933.72
548.932	10640.67
549.278	10626.66
549.624	10869.16
549.97	10495.19
550.316	10095.22
550.662	9991.66
551.008	11035.85
551.353	12359
551.699	13020.77
552.045	12231.96
552.391	11715.81
552.736	11578.17
553.082	11481.71
553.427	11141.22
553.773	10378.41
554.118	10414.37
554.464	11038.14
554.809	11841.71
555.154	12249.36
555.5	12263.48
555.845	11327.4
556.19	10623.35
556.535	10296.5
556.88	10679.11
557.225	10595.84
557.57	10338.09
557.915	9802.75
558.26	9562.25
558.605	9580.73
558.95	10101.61
559.295	11170.66
559.639	12122.5
559.984	12995.15
560.329	13066.21
560.673	13108.38
561.018	12321.96
561.362	11661.43
561.707	11170.91
562.051	11358.58
562.395	11661.93
562.74	12244.82
563.084	12456.24
563.428	13014.74
563.772	12864.02
564.117	13083.03
564.461	13099.09
564.805	12900.21
565.149	13079.26
565.493	13010.22
565.836	13499.54
566.18	13999.73
566.524	15969.04
566.868	16939.16
567.212	17501.82
567.555	17967.25
567.899	19799.98
568.242	21439.85
568.586	24594.65
568.929	27976.31
569.273	30970.02
569.616	31424.76
569.96	32683.66
570.303	34628.8
570.646	35563.93
570.989	37862.79
571.333	36858.3
571.676	34050.09
572.019	29390.78
572.362	32957.28
572.705	38206.19
573.048	42238.62
573.391	45103.75
573.733	46349.77
574.076	47245.96
574.419	44582.57
574.762	40231.55
575.104	35158.88
575.447	36023.24
575.789	40935.13
576.132	45534.38
576.474	47054.96
576.817	54655.5
577.159	61034.39
577.501	60079.45
577.844	52369.82
578.186	41568.22
578.528	38536.82
578.87	38138.59
579.212	40968.45
579.554	43430.53
579.896	43207.89
580.238	48911.57
580.58	62828.88
580.922	68315.25
581.264	68315.25
581.606	62476.24
581.947	55311.5
582.289	44638.4
582.631	36255.8
582.972	32150.64
583.314	32873.46
583.655	35147.77
583.997	42207.45
584.338	48670.56
584.679	52998.22
585.021	49979.71
585.362	43230.39
585.703	37390.36
586.044	37333.95
586.385	41482.1
586.726	45559.65
587.067	42176.29
587.408	37747.45
587.749	34415.06
588.09	31710.93
588.431	28314.88
588.772	26207.01
589.113	27090.37
589.453	27237.46
589.794	25447.38
590.134	23031.83
590.475	21994.06
590.815	22317.61
591.156	22311.23
591.496	23936.56
591.837	32263.98
592.177	38735.76
592.517	42314.17
592.857	38180.93
593.198	33702
593.538	27923.73
593.878	26140
594.218	27697.98
594.558	30028.02
594.898	28436.27
595.237	25161.73
595.577	22275.64
595.917	20272.42
596.257	21789.04
596.596	23124.83
596.936	23913.49
597.276	22210.09
597.615	23016.61
597.955	29743.92
598.294	33630.96
598.633	33577.68
598.973	31119.2
599.312	31172.13
599.651	30943.68
599.991	29343.32
600.33	28612.48
600.669	26994.84
601.008	25195.84
601.347	23636.22
601.686	24855.73
602.025	24769.35
602.364	27294.68
602.702	27904.57
603.041	27756.69
603.38	25412.28
603.719	23088.27
604.057	21843.06
604.396	22016.15
604.734	24137.03
605.073	28130.6
605.411	27430.74
605.75	25637.33
606.088	23363.6
606.426	24363.75
606.764	25055.96
607.103	23570.95
607.441	21937.34
607.779	21004.08
608.117	21248.51
608.455	19504.95
608.793	19258.06
609.131	21849.2
609.469	23086.06
609.806	22496.55
610.144	19321.33
610.482	18946.53
610.819	19070.42
611.157	18798.47
611.495	17675.46
611.832	17430.42
612.17	17728.55
612.507	18189.31
612.844	17769.78
613.182	17605.57
613.519	17938.87
613.856	17976.63
614.193	18469.45
614.53	19256.33
614.867	19353.82
615.205	17542.33
615.541	16266.86
615.878	14873.67
616.215	15303.92
616.552	15009.36
616.889	15770.26
617.226	16048.42
617.562	15037.74
617.899	13461.46
618.235	12052.09
618.572	11199.58
618.908	12145.45
619.245	13112.9
619.581	13504.3
619.918	11563.74
620.254	9163.11
620.59	8926.06
620.926	10160.9
621.262	11396.59
621.599	11289.88
621.935	11612.59
622.271	12509.37
622.606	13084.79
622.942	12424.25
623.278	11818.2
623.614	12820.79
623.95	12976.82
624.285	12525.98
624.621	11189.69
624.957	10556.61
625.292	10064.54
625.628	9380.18
625.963	9286.87
626.299	9643.32
626.634	9908.75
626.969	9597.15
627.304	8127.52
627.64	7154.54
627.975	7349.52
628.31	8243.53
628.645	8744.88
628.98	8350.34
629.315	8089.61
629.65	7879.55
629.985	7895.16
630.319	7266.08
630.654	7187.28
630.989	7150.35
631.323	6926.39
631.658	6452.46
631.993	5960.62
632.327	5894.59
632.662	5917.14
632.996	6195.75
633.33	6203.94
633.665	5903.08
633.999	5610.31
634.333	5594.61
634.667	5573.05
635.001	5908.65
635.335	6293.28
635.669	6761.91
636.003	6617.71
636.337	6050.98
636.671	5472.37
637.005	5160.33
637.339	5223.68
637.672	5579.44
638.006	5976.53
638.339	5692.76
638.673	5412.93
639.006	5071.51
639.34	5065.35
639.673	4901.65
640.007	4919.88
640.34	4792.71
640.673	4714.81
641.006	4632.81
641.34	4396.85
641.673	4310.5
642.006	4074.47
642.339	4314.28
642.672	4355.3
643.004	4226.49
643.337	4004.31
643.67	3967.18
644.003	4058.76
644.336	4092.06
644.668	4090.71
645.001	4017.05
645.333	3853.79
645.666	3655.38
645.998	3505.31
646.331	3380.63
646.663	3506.67
646.995	3875.5
647.327	4613.71
647.66	5191.07
647.992	5337.7
648.324	5439.86
648.656	5244.52
648.988	4930.88
649.32	4308.34
649.652	3928.68
649.983	3745.13
650.315	3713.05
650.647	3896.67
650.979	4269.45
651.31	4554.5
651.642	4798.61
651.973	4820.09
652.305	4820.09
652.636	4727.44
652.967	4472.61
653.299	4303.48
653.63	4404.13
653.961	5116.46
654.292	8856.15
654.623	68315.25
654.955	68315.25
655.286	68315.25
655.616	68315.25
655.947	68315.25
656.278	68315.25
656.609	62684.71
656.94	35350.03
657.27	25682.49
657.601	19261.26
657.932	13530.35
658.262	9109.3
658.593	6279.81
658.923	4601.87
659.254	3805.73
659.584	3312.34
659.914	3116.18
660.244	2930.51
660.575	3003.23
660.905	2947.8
661.235	3064.93
661.565	3135.07
661.895	3117.54
662.225	3003.23
662.555	2942.31
662.884	2987.87
663.214	3120.01
663.544	3182.99
663.873	3227.86
664.203	3383.09
664.533	3491.95
664.862	3544.56
665.192	3358.51
665.521	3060
665.85	2796.67
666.18	2626.24
666.509	2679.14
666.838	2779.34
667.167	2863.21
667.496	2817.02
667.825	2766.41
668.154	2765.04
668.483	2831.6
668.812	2944.51
669.141	3010.37
669.47	3041.08
669.798	3043.28
670.127	2914.3
670.456	3311.8
670.784	4117.23
671.113	4895.75
671.441	5420.93
671.77	5262.15
672.098	4754.57
672.426	3930.85
672.755	3472.32
673.083	3314.53
673.411	3373.26
673.739	3210.08
674.067	2962.62
674.395	2958.23
674.723	3099.74
675.051	3260.68
675.379	3182.44
675.706	3155.06
676.034	3013.93
676.362	3013.11
676.689	3388
677.017	3885.27
677.344	4189.72
677.672	4089.36
677.999	3924.61
678.327	4127.79
678.654	4530.26
678.981	4795.66
679.308	4708.9
679.636	4386.33
679.963	3961.49
680.29	3845.1
680.617	4012.44
680.944	4161.06
681.271	3937.08
681.597	3490.32
681.924	3058.63
682.251	3041.36
682.578	3419.94
682.904	3849.99
683.231	4233.78
683.557	4394.96
683.884	4682.55
684.21	4998.14
684.536	5303.27
684.863	5375.59
685.189	5229.55
685.515	4755.38
685.841	4412.49
686.167	4357.19
686.493	4541.3
686.819	4480.69
687.145	4047.93
687.471	3563.9
687.797	3333.38
688.123	3345.4
688.448	3613.2
688.774	3777.47
689.1	3692.11
689.425	3389.1
689.751	3319.45
690.076	3675.25
690.402	4205.68
690.727	4455.9
691.052	4293.49
691.377	4001.6
691.703	3820.93
692.028	3868.45
692.353	4013.53
692.678	3910.78
693.003	3724.74
693.328	3182.44
693.652	2905.79
693.977	3022.98
694.302	3398.65
694.627	3556
694.951	3281.46
695.276	2769.72
695.6	2682.17
695.925	3398.65
696.249	4402.52
696.574	4892
696.898	4485.28
697.222	4010.55
697.546	3680.96
697.871	3577.52
698.195	3475.32
698.519	3346.77
698.843	3139.73
699.167	2922.82
699.491	2713.84
699.814	2707.51
700.138	2679.97
700.462	2584.88
700.786	2608.04
701.109	2845.34
701.433	3048.21
701.756	3243.18
702.08	3206.8
702.403	3127.68
702.726	2864.58
703.05	2680.52
703.373	2646.91
703.696	2680.52
704.019	2511.76
704.342	2291.43
704.665	2127.37
704.988	2138.19
705.311	2428.9
705.634	2984.85
705.957	3663.82
706.28	4239.73
706.602	4376.62
706.925	4203.24
707.247	3854.6
707.57	3555.18
707.892	3344.31
708.215	3083.3
708.537	2871.45
708.859	2848.37
709.182	2910.18
709.504	3093.98
709.826	3190.65
710.148	3108.5
710.47	2956.86
710.792	2747.15
711.114	2594.26
711.436	2512.31
711.758	2521.7
712.079	2623.48
712.401	2903.87
712.723	3109.87
713.044	3459.23
713.366	3551.92
713.687	3536.11
714.009	3333.38
714.33	3195.3
714.652	3003.51
714.973	2807.68
715.294	2541.29
715.615	2283.96
715.936	2135.69
716.257	2121.54
716.578	2168.69
716.899	2248.23
717.22	2513.97
717.541	2714.39
717.862	2730.91
718.182	2686.58
718.503	2847.82
718.824	2772.19
719.144	2651.04
719.465	2532.46
719.785	2586.81
720.105	2697.32
720.426	2767.51
720.746	2717.7
721.066	2710.26
721.386	2602.53
721.706	2444.65
722.026	2372.23
722.346	2362.83
722.666	2428.9
722.986	2500.72
723.306	2455.98
723.626	2345.12
723.946	2409.28
724.265	2678.59
724.585	2909.36
724.904	2994.73
725.224	3034.23
725.543	3008.72
725.863	2908.54
726.182	2749.35
726.501	2581.85
726.82	2669.5
727.14	2778.79
727.459	2920.35
727.778	2998.85
728.097	2940.66
728.416	2965.37
728.734	3176.69
729.053	3261.23
729.372	3240.17
729.691	3454.59
730.009	3782.91
730.328	4046.03
730.647	4053.07
730.965	3786.71
731.283	3517.85
731.602	3395.1
731.92	3526.85
732.238	3673.34
732.557	3837.5
732.875	3973.69
733.193	4439.46
733.511	4674.49
733.829	4407.1
734.147	3982.09
734.465	3606.39
734.782	3630.35
735.1	3791.6
735.418	3777.2
735.735	3804.64
736.053	3814.69
736.371	3776.93
736.688	3496.59
737.005	3181.62
737.323	2856.06
737.64	2896.45
737.957	3217.74
738.274	3817.95
738.592	4014.34
738.909	3792.69
739.226	3216.92
739.543	2798.32
739.86	2509.83
740.176	2354.81
740.493	2233.28
740.81	2164.26
741.127	2219.42
741.443	2479.46
741.76	2667.85
742.076	2587.64
742.393	2395.46
742.709	2154.83
743.025	2056.03
743.342	2101.01
743.658	2168.97
743.974	2254.88
744.29	2275.93
744.606	2223.02
744.922	2248.23
745.238	2169.25
745.554	2079.08
745.87	2080.47
746.186	2269.56
746.501	2366.98
746.817	2316.07
747.132	2046.31
747.448	1903.7
747.763	1915.38
748.079	2130.97
748.394	2480.01
748.71	2826.65
749.025	3143.29
749.34	3248.38
749.655	3140.55
749.97	2908.26
750.285	2874.2
750.6	3032.31
750.915	3190.1
751.23	3129.32
751.545	2895.08
751.859	2604.18
752.174	2566.4
752.489	2850.56
752.803	3157.8
753.118	3219.38
753.432	3035.05
753.747	2842.59
754.061	3005.98
754.375	3267.52
754.689	3449.95
755.004	3555.46
755.318	3713.32
755.632	4040.62
755.946	4242.43
756.26	4663.2
756.573	5036.17
756.887	5341.71
757.201	5089.44
757.515	4345.05
757.828	3779.37
758.142	3778.29
758.455	4349.64
758.769	4814.45
759.082	5047.41
759.396	5231.42
759.709	5319.29
760.022	5280.84
760.335	4807.21
760.648	4115.88
760.962	3596.31
761.275	3212.54
761.587	3254.94
761.9	3176.14
762.213	3369.98
762.526	3592.5
762.839	3680.41
763.151	3899.65
763.464	4299.7
763.776	4978.85
764.089	5214.06
764.401	4833.78
764.714	4339.65
765.026	3819.31
765.338	3357.97
765.65	2901.67
765.962	2636.16
766.275	2440.78
766.587	2439.13
766.898	2596.19
767.21	2947.53
767.522	3397.56
767.834	3673.34
768.146	3509.13
768.457	3233.88
768.769	2907.71
769.08	2900.85
769.392	3129.87
769.703	3392.64
770.015	3718.49
770.326	3676.06
770.637	3442.31
770.948	2978.82
771.26	2667.57
771.571	2618.8
771.882	2723.75
772.193	2724.3
772.504	2558.95
772.814	2462.06
773.125	2362.55
773.436	2193.09
773.747	2093.79
774.057	2032.98
774.368	1988.52
774.678	1896.46
774.989	1778.37
775.299	1722.61
775.609	1728.74
775.919	1754.96
776.23	1793.7
776.54	1755.52
776.85	1752.45
777.16	1823.51
777.47	2061.31
777.78	2278.7
778.089	2495.47
778.399	2493.54
778.709	2329.63
779.019	2076.3
779.328	1845.8
779.638	1913.71
779.947	2242.97
780.257	2689.33
780.566	2920.07
780.875	2739.44
781.185	2531.63
781.494	2409.28
781.803	2273.44
782.112	2205.84
782.421	2326.31
782.73	2376.1
783.039	2291.71
783.348	2037.42
783.656	1853.59
783.965	1724.84
784.274	1920.95
784.582	2000.19
784.891	2021.59
785.199	1988.8
785.508	1893.96
785.816	1814.88
786.124	1910.65
786.432	2120.43
786.741	2283.41
787.049	2300.85
787.357	2243.53
787.665	2251
787.973	2252.67
788.281	2133.47
788.588	1867.79
788.896	1707.82
789.204	1593.35
789.511	1586.36
789.819	1511.15
790.126	1482.05
790.434	1501.36
790.741	1555.9
791.049	1539.96
791.356	1403.38
791.663	1394.13
791.97	1388.53
792.277	1437.26
792.584	1605.36
792.891	1981.57
793.198	2277.87
793.505	2397.39
793.812	2273.71
794.119	2180.62
794.425	2074.91
794.732	1853.87
795.038	1553.38
795.345	1343.68
795.651	1223.02
795.958	1213.47
796.264	1332.75
796.57	1525.7
796.876	1524.58
797.183	1430.54
797.489	1345.36
797.795	1305.82
798.101	1355.46
798.406	1343.12
798.712	1245.2
799.018	1192.4
799.324	1222.18
799.629	1191.84
799.935	1207.57
800.24	1151.09
800.546	1131.13
800.851	1072.62
801.157	1006.46
801.462	978.85
801.767	1018.01
802.072	1073.18
802.377	1186.5
802.682	1177.79
802.987	1128.88
803.292	1052.64
803.597	1064.46
803.902	1101.32
804.207	1088.1
804.511	1115.95
804.816	1239.31
805.12	1400.85
805.425	1609.55
805.729	1600.89
806.034	1481.21
806.338	1360.5
806.642	1265.13
806.946	1288.99
807.251	1296
807.555	1313.96
807.859	1320.69
808.162	1275.52
808.466	1219.65
808.77	1131.13
809.074	1079.66
809.378	1076.28
809.681	1071.78
809.985	1043.63
810.288	1036.59
810.592	1007.02
810.895	958.56
811.198	896.8
811.502	869.15
811.805	836.69
812.108	905.83
812.411	965.6
812.714	1115.38
813.017	1258.96
813.32	1238.47
813.623	1122.98
813.926	1046.44
814.228	936.01
814.531	871.97
814.833	820.03
815.136	840.08
815.438	868.02
815.741	859.56
816.043	940.52
816.345	932.34
816.648	906.68
816.95	895.11
817.252	865.48
817.554	845.16
817.856	822.01
818.158	792.92
818.46	789.81
818.761	820.88
819.063	831.04
819.365	868.02
819.666	962.22
819.968	1008.15
820.269	1033.21
820.571	992.94
820.872	906.96
821.173	813.25
821.475	785.01
821.776	760.99
822.077	795.46
822.378	785.29
822.679	798.28
822.98	767.77
823.281	729.61
823.581	750.53
823.882	757.31
824.183	772.29
824.483	796.31
824.784	831.33
825.084	888.06
825.385	841.21
825.685	773.14
825.985	808.17
826.286	804.78
826.586	813.54
826.886	854.76
827.186	829.63
827.486	801.39
827.786	741.76
828.086	756.18
828.386	792.35
828.685	780.48
828.985	800.83
829.285	754.2
829.584	711.22
829.884	671.9
830.183	652.65
830.482	652.09
830.782	641.9
831.081	619.53
831.38	646.14
831.679	635.95
831.978	669.07
832.277	688.59
832.576	683.78
832.875	703.02
833.174	689.44
833.472	676.99
833.771	709.53
834.07	714.34
834.368	737.81
834.667	658.03
834.965	673.88
835.263	669.07
835.562	645.58
835.86	632.84
836.158	601.69
836.456	582.14
836.754	571.65
837.052	574.49
837.35	594.6
837.648	578.45
837.946	582.42
838.243	573.92
838.541	579.02
838.839	624.63
839.136	596.02
839.434	635.39
839.731	602.82
840.028	604.23
840.326	605.08
840.623	575.34
840.92	570.52
841.217	546.99
841.514	552.95
841.811	555.78
842.108	558.9
842.405	556.35
842.701	541.89
842.998	578.17
843.295	558.9
843.591	546.43
843.888	555.5
844.184	553.23
844.481	521.48
844.777	554.65
845.073	556.07
845.369	562.02
845.665	536.79
845.962	559.75
846.258	525.16
846.553	544.44
846.849	558.62
847.145	551.25
847.441	574.49
847.737	551.25
848.032	538.21
848.328	535.09
848.623	535.09
848.919	535.09
849.214	563.15
849.509	539.06
849.805	520.63
850.1	560.6
850.395	519.21
850.69	547.56
850.985	520.91
851.28	532.54
851.575	523.18
851.869	555.78
852.164	550.68
852.459	605.08
852.753	621.23
853.048	649.82
853.342	693.69
853.637	675.01
853.931	683.5
854.225	663.69
854.52	651.24
854.814	639.07
855.108	636.24
855.402	634.54
855.696	600.55
855.99	623.49
856.283	585.82
856.577	594.32
856.871	573.64
857.164	567.69
857.458	566.27
857.751	539.91
858.045	557.2
858.338	536.5
858.632	574.2
858.925	542.18
859.218	551.81
859.511	529.98
859.804	516.09
860.097	556.07
860.39	549.55
860.683	515.24
860.976	540.76
861.268	522.33
861.561	512.12
861.854	525.73
862.146	512.97
862.439	501.34
862.731	517.51
863.023	533.39
863.316	546.43
863.608	516.94
863.9	533.67
864.192	545.01
864.484	545.01
864.776	516.09
865.068	535.94
865.36	528
865.651	519.77
865.943	502.76
866.235	517.51
866.526	523.46
866.818	528.57
867.109	514.39
867.4	503.32
867.692	544.73
867.983	520.06
868.274	510.98
868.565	500.77
868.856	514.1
869.147	537.64
869.438	507.86
869.729	517.79
870.02	508.43
870.31	524.03
870.601	504.18
870.892	496.23
871.182	530.55
871.473	486.3
871.763	519.21
872.053	489.99
872.343	520.63
872.634	537.07
872.924	516.66
873.214	500.77
873.504	497.94
873.794	475.24
874.084	480.91
874.373	490.84
874.663	492.83
874.953	505.31
875.242	510.42
875.532	521.48
875.821	501.34
876.111	510.42
876.4	534.8
876.689	507.01
876.978	501.62
877.268	512.12
877.557	507.58
877.846	498.5
878.134	481.48
878.423	481.48
878.712	481.48
