Data from FLMS007011_10-46-24-749.txt Node
Date: Thu Apr 21 10:46:24 MDT 2016
User: lab_user
Spectrometer: FLMS00701
Autoset integration time: false
Trigger mode: 0
Integration Time (sec): 5.000000E-3
Scans to average: 10
Electric dark correction enabled: true
Nonlinearity correction enabled: true
Boxcar width: 0
XAxis mode: Wavelengths
Stop averaging: false
Number of Pixels in Spectrum: 2048
>>>>>Begin Spectral Data<<<<<
178.41	36.57
178.791	36.57
179.172	36.57
179.553	-58
179.934	-58.29
180.316	-64.87
180.697	-77.16
181.078	-73.45
181.459	-32.85
181.84	-39.71
182.221	-40.85
182.602	-7.13
182.983	12.59
183.364	27.44
183.744	49.14
184.125	51.71
184.506	83.1
184.887	118.19
185.268	156.97
185.648	141.86
186.029	182.62
186.41	198.86
186.791	204.27
187.171	267.2
187.552	428.95
187.932	457.34
188.313	470.11
188.694	477.21
189.074	476.64
189.455	519.76
189.835	546.13
190.216	569.09
190.596	595.44
190.977	588.64
191.357	641.03
191.737	681.22
192.118	665.94
192.498	685.18
192.878	703.29
193.258	704.7
193.639	710.08
194.019	731.85
194.399	764.64
194.779	764.93
195.159	771.71
195.54	796.01
195.92	797.7
196.3	821.15
196.68	840.91
197.06	815.5
197.44	854.46
197.82	853.05
198.2	882.96
198.58	899.61
198.959	886.91
199.339	902.99
199.719	957.13
200.099	975.45
200.479	986.72
200.858	1015.74
201.238	1035.45
201.618	1057.69
201.998	1069.23
202.377	1087.52
202.757	1137.86
203.136	1144.61
203.516	1175.25
203.896	1211.77
204.275	1199.13
204.655	1247.72
205.034	1255.58
205.414	1325.16
205.793	1355.72
206.172	1349.83
206.552	1369.45
206.931	1431.93
207.31	1447.05
207.69	1505.54
208.069	1533.79
208.448	1573.49
208.827	1601.71
209.207	1661.2
209.586	1681.58
209.965	1764.98
210.344	1775.57
210.723	1835.48
211.102	1907.3
211.481	1980.44
211.86	1972.1
212.239	2040.19
212.618	2108.76
212.997	2193.08
213.376	2207.49
213.755	2275.91
214.134	2339.02
214.513	2436.62
214.891	2497.39
215.27	2564.73
215.649	2658.74
216.028	2713.55
216.406	2797.76
216.785	2929.67
217.164	2945.04
217.542	3070.13
217.921	3155.87
218.3	3274.61
218.678	3360.14
219.057	3463.85
219.435	3556.26
219.814	3683.39
220.192	3781.53
220.57	3926.22
220.949	4029.77
221.327	4138.05
221.705	4290.77
222.084	4431.62
222.462	4626.6
222.84	4684.42
223.218	4861.4
223.597	5029.19
223.975	5188.65
224.353	5332.62
224.731	5558.66
225.109	5709.49
225.487	5882.9
225.865	6098.1
226.243	6321
226.621	6530.49
226.999	6679.82
227.377	6929.26
227.755	7085.35
228.133	7353.95
228.511	7503.15
228.889	7751.96
229.266	7913.62
229.644	8288.38
230.022	8515.29
230.4	8629.61
230.777	8841.43
231.155	9187.8
231.533	9366.03
231.91	9596.62
232.288	9900.8
232.665	10080.89
233.043	10379.16
233.42	10553.28
233.798	10794.12
234.175	11039.14
234.553	11289.86
234.93	11496.38
235.307	11780.02
235.685	11990.73
236.062	12194.37
236.439	12448.67
236.816	12736.56
237.194	13066.95
237.571	13281.47
237.948	13495.02
238.325	13756.9
238.702	13911.72
239.079	14187.35
239.456	14356.61
239.833	14672.1
240.21	14961.06
240.587	15122.09
240.964	15465.49
241.341	15665.71
241.718	15885.16
242.095	16014.68
242.472	16227.44
242.849	16527.5
243.225	16807.02
243.602	16983.43
243.979	17115.5
244.356	17302.89
244.732	17704.58
245.109	17908
245.486	18029.92
245.862	18257.86
246.239	18541.91
246.615	18753.62
246.992	18963.02
247.368	19061.79
247.745	19431.59
248.121	19736.24
248.497	19697.12
248.874	20008.3
249.25	20251.26
249.626	20438.6
250.003	20612.37
250.379	20955.17
250.755	21121.25
251.131	21307.69
251.507	21466.6
251.884	21798.36
252.26	21900.75
252.636	22159.76
253.012	22346.56
253.388	22659.27
253.764	22883.09
254.14	22766.76
254.516	23038.19
254.892	23107.15
255.268	23355
255.643	23459.78
256.019	23721.6
256.395	23688.23
256.771	24001.32
257.147	24099.23
257.522	24195.41
257.898	24404.22
258.274	24468.02
258.649	24541.39
259.025	24664.07
259.4	24823.08
259.776	24946.75
260.151	25083.92
260.527	25057.91
260.902	25270.92
261.278	25395.09
261.653	25298.65
262.028	25396.07
262.404	25604.43
262.779	25636.83
263.154	25906.56
263.53	26003.26
263.905	25796.36
264.28	25860.17
264.655	25984.85
265.03	25759.79
265.405	26086.72
265.781	26053.83
266.156	26158.15
266.531	26253.63
266.906	26127.22
267.281	26392.58
267.655	26179.99
268.03	26208.22
268.405	26168.21
268.78	26322.37
269.155	26455.91
269.53	26319.67
269.904	26399.94
270.279	26406.08
270.654	26464.26
271.029	26295.61
271.403	26412.95
271.778	26375.88
272.152	26325.56
272.527	26410.25
272.901	26622.85
273.276	26708.29
273.65	26791.28
274.025	26776.06
274.399	26508.94
274.774	26703.14
275.148	26850.7
275.522	26715.66
275.897	26793.98
276.271	26702.15
276.645	27045.41
277.019	27002.2
277.393	27052.04
277.768	26923.87
278.142	26941.3
278.516	26846.28
278.89	26984.76
279.264	26789.31
279.638	27000.23
280.012	26883.84
280.386	26717.38
280.76	26822.71
281.133	26899.07
281.507	26772.62
281.881	27045.91
282.255	27015.46
282.629	26951.61
283.002	26788.33
283.376	26819.02
283.75	26722.29
284.123	26871.08
284.497	26785.88
284.87	26919.94
285.244	26973.22
285.618	26665.57
285.991	26559.51
286.364	26642.74
286.738	26664.34
287.111	26819.02
287.485	26553.13
287.858	26536.44
288.231	26421.54
288.605	26369.01
288.978	26378.34
289.351	26192.02
289.724	26167.72
290.097	26070.52
290.47	26008.91
290.843	26048.92
291.217	25966.45
291.59	25579.89
291.963	25788.5
292.336	25648.85
292.708	25453.99
293.081	25574.24
293.454	25572.53
293.827	25330.55
294.2	25117.54
294.573	25165.64
294.945	24872.89
295.318	25019.14
295.691	25005.89
296.064	24793.39
296.436	24716.83
296.809	24871.66
297.181	24718.55
297.554	24570.59
297.926	24641.99
298.299	24586.04
298.671	24692.54
299.044	24681.25
299.416	24503.6
299.788	24450.6
300.161	24321.29
300.533	24400.05
300.905	24467.04
301.278	24495.5
301.65	24586.78
302.022	24440.54
302.394	24367.42
302.766	24413.3
303.138	24200.07
303.51	24300.68
303.882	24422.38
304.254	24284.24
304.626	24420.66
304.998	24508.75
305.37	24187.31
305.742	24418.7
306.114	24380.91
306.485	24407.41
306.857	24389.01
307.229	24340.18
307.601	24351.96
307.972	24356.37
308.344	24222.65
308.716	24271.48
309.087	24121.56
309.459	24134.07
309.83	24219.7
310.202	24253.32
310.573	24323.5
310.945	24271.23
311.316	24020.71
311.687	24133.58
312.059	24182.41
312.43	24102.91
312.801	24126.46
313.172	23979.49
313.544	23965.01
313.915	24163.02
314.286	24030.77
314.657	24055.31
315.028	24019.97
315.399	23934.83
315.77	24011.87
316.141	23929.18
316.512	23960.59
316.883	23786.13
317.254	23878.64
317.625	23649.95
317.996	23748.59
318.366	23798.65
318.737	23783.19
319.108	23706.63
319.478	23510.82
319.849	23673.26
320.22	23662.46
320.59	23617.07
320.961	23378.56
321.331	23644.55
321.702	23249.73
322.072	23219.54
322.443	23239.67
322.813	23256.6
323.184	23217.58
323.554	23065.43
323.924	23064.45
324.295	23035.74
324.665	22807.75
325.035	22839.41
325.405	22757.93
325.775	22671.05
326.145	22572.63
326.515	22455.06
326.886	22333.06
327.256	22192.16
327.626	22008.53
327.995	21810.88
328.365	21717.09
328.735	21487.48
329.105	21113.15
329.475	20730.34
329.845	20438.84
330.215	20622.45
330.584	21248.99
330.954	22007.79
331.324	23038.19
331.693	23469.1
332.063	23939.98
332.432	24298.71
332.802	24089.9
333.171	23701.48
333.541	22912.54
333.91	22632.51
334.28	22278.57
334.649	22160
335.018	22012.95
335.388	21955.74
335.757	21919.16
336.126	21688.36
336.495	21771.84
336.865	21708.25
337.234	21518.42
337.603	21492.39
337.972	21413.55
338.341	21596.02
338.71	21467.83
339.079	21410.36
339.448	21384.57
339.817	21299.1
340.186	21313.59
340.554	21399.55
340.923	21310.89
341.292	21107.5
341.661	21188.81
342.029	21265.45
342.398	21162.03
342.767	21028.39
343.135	21085.88
343.504	20888.1
343.872	21219.76
344.241	21059.34
344.609	21000.14
344.978	21024.7
345.346	21055.91
345.715	20988.59
346.083	20851.98
346.451	20826.42
346.82	20782.68
347.188	20756.39
347.556	20640.39
347.924	20692.99
348.292	20553.14
348.66	20674.31
349.028	20511.36
349.396	20473.75
349.764	20459.74
350.132	20400.98
350.5	20486.78
350.868	20332.64
351.236	20354.28
351.604	20254.95
351.972	20299.7
352.34	19996.5
352.707	20154.87
353.075	20154.38
353.443	19999.45
353.81	19865.89
354.178	19847.69
354.545	19919.27
354.913	19928.61
355.28	19739.93
355.648	19875.73
356.015	19911.64
356.383	19870.32
356.75	19703.27
357.117	19767
357.485	19697.12
357.852	19565.23
358.219	19656.28
358.586	19551.94
358.954	19503.71
359.321	19358.73
359.688	19497.8
360.055	19427.65
360.422	19478.6
360.789	19267.89
361.156	19438.24
361.523	19213.48
361.89	19157.09
362.256	19318.11
362.623	19037.16
362.99	19042.83
363.357	18994.8
363.724	19076.81
364.09	19010.81
364.457	18996.77
364.823	19091.59
365.19	18911.05
365.557	19057.85
365.923	19027.06
366.29	18915.48
366.656	19089.37
367.022	19125.82
367.389	18871.39
367.755	18721.83
368.121	18749.18
368.488	18747.21
368.854	18717.39
369.22	18411
369.586	18325.19
369.952	18163.14
370.318	18151.8
370.684	18311.63
371.051	18143.9
371.416	17994.63
371.782	18045.96
372.148	17991.42
372.514	17875.42
372.88	17830
373.246	17816.92
373.612	18000.31
373.977	17980.56
374.343	18055.08
374.709	18163.64
375.074	17971.93
375.44	17876.16
375.806	17766.31
376.171	17811
376.537	17748.04
376.902	17846.3
377.268	18049.16
377.633	18080.74
377.998	18317.05
378.364	18517.01
378.729	18352.32
379.094	18209.52
379.459	17792.73
379.825	17695.94
380.19	17832.97
380.555	17461.29
380.92	17303.14
381.285	17217.11
381.65	17348.86
382.015	17349.35
382.38	17246.28
382.745	17088.29
383.11	17055.4
383.474	17061.34
383.839	16982.93
384.204	16928.01
384.569	16883.23
384.933	16790.93
385.298	16638.19
385.663	16584.96
386.027	16833
386.392	17003.46
386.756	17146.4
387.121	17204.01
387.485	17380.98
387.849	17444.74
388.214	17117.97
388.578	16981.94
388.942	16733.01
389.307	16787.71
389.671	16757.02
390.035	16837.21
390.399	16901.29
390.763	17063.07
391.127	17350.09
391.492	17783.1
391.856	18119.23
392.219	18387.33
392.583	18151.8
392.947	17444.74
393.311	17042.05
393.675	17018.8
394.039	16939.89
394.403	16812.21
394.766	16597.59
395.13	16589.91
395.494	16636.71
395.857	16689.2
396.221	16866.16
396.584	17193.13
396.948	17565.79
397.311	18099.25
397.675	18300.53
398.038	18194.47
398.401	17447.95
398.765	17066.28
399.128	16680.53
399.491	16468.06
399.854	16303.53
400.218	16392.25
400.581	16169.67
400.944	16003.02
401.307	15662.49
401.67	15784.89
402.033	15594.93
402.396	15668.69
402.759	15680.37
403.122	15750.88
403.485	15819.15
403.847	16084.87
404.21	16258.92
404.573	16458.39
404.936	16362.76
405.298	15895.59
405.661	15555.93
406.023	15242.24
406.386	15075.31
406.749	14995.66
407.111	15029.76
407.473	15488.84
407.836	15587.23
408.198	15678.88
408.561	15651.06
408.923	15598.9
409.285	15507.48
409.647	15137.76
410.009	14886.11
410.372	15041.21
410.734	14872.41
411.096	14913.5
411.458	14991.68
411.82	15144.98
412.182	15374.77
412.544	15327.53
412.906	15284.02
413.267	15250.2
413.629	14991.18
413.991	14835.8
414.353	14789.71
414.714	14502.56
415.076	14558.67
415.438	14621.75
415.799	14685.06
416.161	14397.29
416.522	14300.95
416.884	14296.96
417.245	14289.72
417.607	14173.11
417.968	14167.37
418.329	14356.36
418.691	14343.63
419.052	14472.38
419.413	14608.29
419.774	14680.08
420.135	15373.77
420.497	15977.22
420.858	16308.74
421.219	16259.17
421.58	15757.34
421.941	15314.85
422.302	14775.02
422.662	14745.86
423.023	14570.64
423.384	14568.15
423.745	14696.77
424.106	14761.31
424.466	14851.24
424.827	14446.93
425.187	13947.23
425.548	13797.43
425.909	13693.59
426.269	13881.22
426.63	14000.72
426.99	14293.71
427.35	14037.96
427.711	14241.04
428.071	14551.19
428.431	15089.99
428.792	16346.65
429.152	17182.5
429.512	17175.33
429.872	16916.63
430.232	16385.06
430.592	15438.15
430.952	14526
431.312	13982.47
431.672	13628
432.032	13652.03
432.392	14304.2
432.752	15570.58
433.111	16284.7
433.471	15644.6
433.831	14576.87
434.19	14607.54
434.55	14622.25
434.91	14225.06
435.269	14703
435.629	14810.39
435.988	14888.1
436.348	14409.76
436.707	13998.22
437.066	14014.22
437.426	14362.35
437.785	14457.41
438.144	14473.38
438.503	14162.12
438.862	14029.71
439.222	13744.14
439.581	13754.4
439.94	14166.37
440.299	15246.47
440.658	15948.69
441.017	15891.62
441.376	15560.65
441.734	15209.9
442.093	15209.66
442.452	15378.49
442.811	15634.17
443.169	15479.9
443.528	15002.88
443.887	14960.06
444.245	14750.1
444.604	14514.03
444.962	14266.5
445.321	14498.82
445.679	14478.61
446.038	14635.21
446.396	14314.18
446.754	13928.73
447.112	13736.13
447.471	13740.13
447.829	13486.75
448.187	13624
448.545	13728.12
448.903	13598.96
449.261	13508.05
449.619	13308.05
449.977	13197.95
450.335	12880.09
450.693	12906.72
451.051	12790.62
451.409	12791.37
451.766	12748.38
452.124	12350.17
452.482	12046.27
452.839	12039.2
453.197	11805.8
453.555	11747.15
453.912	11759.29
454.27	12226.91
454.627	12480.9
454.984	12325.72
455.342	12027.34
455.699	11863.43
456.056	11932.65
456.414	12207.24
456.771	12618.34
457.128	12648.78
457.485	12762.46
457.842	12662.11
458.199	12662.36
458.556	13002.17
458.913	12868.78
459.27	13128.19
459.627	12685.25
459.984	12828.07
460.341	12965.76
460.697	12494.75
461.054	11783.31
461.411	11381.63
461.767	11150.85
462.124	11250.81
462.481	11542.21
462.837	11837.14
463.194	12320.43
463.55	12284.89
463.907	12895.92
464.263	13360.45
464.619	13831.45
464.976	14218.56
465.332	14047.7
465.688	13255.39
466.044	12372.59
466.4	12029.1
466.756	11904.35
467.112	11914.46
467.468	11998.56
467.824	11682.41
468.18	11387.45
468.536	11362.11
468.892	10944.38
469.248	10940.57
469.604	10769.95
469.959	10785.22
470.315	10860.24
470.671	10882.11
471.026	11028.22
471.382	11194.49
471.737	11514.36
472.093	11749.17
472.448	12244.56
472.804	12532.01
473.159	12576.06
473.514	12639.47
473.87	12970.03
474.225	13652.03
474.58	14277.24
474.935	14003.97
475.29	13688.58
475.645	13645.78
476	13475.23
476.355	13342.65
476.71	13366.47
477.065	14126.16
477.42	14563.16
477.775	14339.14
478.13	14210.82
478.485	14481.11
478.839	14874.65
479.194	15634.17
479.549	16089.33
479.903	15902.54
480.258	15664.47
480.612	16206.12
480.967	16883.97
481.321	16777.56
481.675	15963.32
482.03	15546.49
482.384	15533.32
482.738	15607.1
483.093	16019.89
483.447	16683.5
483.801	17745.82
484.155	18083.46
484.509	25860.91
484.863	52920.48
485.217	62680.27
485.571	58233
485.925	36038.05
486.279	27067.76
486.632	23053.41
486.986	19720.5
487.34	17333.78
487.694	16545.09
488.047	16392.74
488.401	16393.49
488.754	16052.38
489.108	15667.95
489.461	15436.66
489.815	15136.77
490.168	15424.48
490.522	15563.88
490.875	15458.53
491.228	15354.38
491.581	15645.6
491.935	15394.9
492.288	15370.04
492.641	15589.22
492.994	15583.75
493.347	15957.37
493.7	15934.3
494.053	15799.79
494.406	15190
494.759	14850.99
495.111	15889.38
495.464	17194.37
495.817	17646.3
496.169	16730.04
496.522	15392.17
496.875	14430.97
497.227	14313.18
497.58	14282.23
497.932	14602.55
498.285	14706.74
498.637	15542.76
498.989	15855.14
499.342	15640.38
499.694	15024.53
500.046	14829.57
500.398	15615.55
500.751	15873.5
501.103	15901.05
501.455	15822.37
501.807	15909.24
502.159	15735.24
502.511	15948.44
502.862	15721.34
503.214	15237.01
503.566	14660.63
503.918	14382.56
504.27	14487.59
504.621	14505.3
504.973	14246.78
505.324	14508.3
505.676	14906.03
506.027	14792.95
506.379	13812.44
506.73	13509.05
507.082	13759.65
507.433	14215.32
507.784	14359.36
508.136	13958.98
508.487	13609.22
508.838	13430.38
509.189	13465.71
509.54	13738.88
509.891	13475.98
510.242	13424.36
510.593	13237.58
510.944	13053.9
511.295	12683.49
511.646	12356.22
511.996	12537.05
512.347	12770.5
512.698	12754.16
513.049	12610.03
513.399	12396.28
513.75	12445.14
514.1	12074.03
514.451	11579.68
514.801	11664.95
515.152	11944.77
515.502	12264.47
515.852	12429.78
516.202	12349.92
516.553	12065.2
516.903	11680.13
517.253	11361.86
517.603	11274.65
517.953	11495.37
518.303	12097.5
518.653	12234.72
519.003	11862.16
519.353	11187.9
519.703	10741.2
520.052	10614.42
520.402	10859.99
520.752	11009.68
521.102	10686.48
521.451	10510.47
521.801	10694.62
522.15	10864.82
522.5	10954.55
522.849	11014.76
523.199	11272.87
523.548	11395.31
523.897	11130.54
524.246	10825.15
524.596	10551.75
524.945	10679.61
525.294	10703.28
525.643	10664.33
525.992	10742.98
526.341	10854.9
526.69	10702.52
527.039	10400.07
527.388	10365.38
527.737	11044.98
528.086	11931.89
528.434	12290.44
528.783	11725.15
529.132	11345.38
529.48	11006.38
529.829	10828.46
530.177	10698.19
530.526	10598.37
530.874	10807.6
531.223	10729.75
531.571	10636.83
531.919	10820.32
532.268	11553.86
532.616	12340.84
532.964	12718.7
533.312	12698.84
533.66	12508.85
534.008	12641.99
534.356	12601.22
534.704	12450.68
535.052	11961.44
535.4	11393.03
535.748	10979.19
536.095	10389.36
536.443	10535.45
536.791	10969.54
537.139	11485.75
537.486	11895.26
537.834	12113.4
538.181	12228.42
538.529	12139.13
538.876	12104.82
539.223	11742.35
539.571	11308.62
539.918	11380.86
540.265	11897.28
540.613	12087.66
540.96	11955.88
541.307	11792.91
541.654	11871.76
542.001	11872.02
542.348	11912.19
542.695	11845.23
543.042	12148.47
543.388	12445.14
543.735	12572.79
544.082	12589.4
544.429	12508.6
544.775	11904.35
545.122	11170.13
545.469	10949.72
545.815	11005.36
546.162	11210.73
546.508	11692.02
546.854	12621.1
547.201	13552.13
547.547	13661.05
547.893	12979.57
548.24	11758.28
548.586	10721.1
548.932	10478.61
549.278	10454.65
549.624	10655.67
549.97	10479.38
550.316	10006.74
550.662	9856.26
551.008	10984.02
551.353	12259.94
551.699	12810.98
552.045	12089.68
552.391	11494.86
552.736	11333.72
553.082	11436.35
553.427	10999.77
553.773	10260.49
554.118	10335.53
554.464	10911.6
554.809	11766.87
555.154	12130.3
555.5	12103.31
555.845	11200.07
556.19	10528.82
556.535	10215.03
556.88	10611.62
557.225	10535.19
557.57	10180.55
557.915	9684.33
558.26	9464.94
558.605	9596.88
558.95	9985.5
559.295	11054.63
559.639	11988.46
559.984	12858.73
560.329	12932.85
560.673	12841.64
561.018	12142.67
561.362	11452.82
561.707	11020.85
562.051	11239.9
562.395	11500.18
562.74	12037.94
563.084	12360.5
563.428	12860.24
563.772	12698.59
564.117	13022.51
564.461	12941.89
564.805	12706.63
565.149	12969.52
565.493	12944.91
565.836	13486.5
566.18	13922.48
566.524	15914.2
566.868	16761.23
567.212	17401.74
567.555	17698.66
567.899	19684.08
568.242	21329.31
568.586	24384.84
568.929	27813.66
569.273	30800.16
569.616	31035.73
569.96	32527.39
570.303	34394.31
570.646	35356.69
570.989	37290.89
571.333	36403.6
571.676	33695.32
572.019	29216.19
572.362	32773.61
572.705	38150.95
573.048	41973.15
573.391	44757.89
573.733	45996.76
574.076	46914.26
574.419	43905.17
574.762	39685.29
575.104	34734.19
575.447	35721.04
575.789	40936.61
576.132	45203.09
576.474	46775.26
576.817	54551.31
577.159	60712.4
577.501	59532.21
577.844	51485.02
578.186	40986.58
578.528	38258.42
578.87	37882.09
579.212	40773.56
579.554	43049.38
579.896	42678.95
580.238	49056.44
580.58	62561.43
580.922	68129.6
581.264	68129.6
581.606	61714.92
581.947	54310.28
582.289	43782.6
582.631	35706.46
582.972	31952.06
583.314	32427.34
583.655	34974.66
583.997	42228.88
584.338	48211.69
584.679	52487.2
585.021	48947.49
585.362	42644
585.703	36670.85
586.044	37136.03
586.385	40963.71
586.726	44901.9
587.067	41360.65
587.408	37295.59
587.749	33898.1
588.09	31147.26
588.431	27863.53
588.772	25908.03
589.113	26675.15
589.453	26849.96
589.794	25145.76
590.134	22682.34
590.475	21749.25
590.815	22159.02
591.156	22030.62
591.496	24040.83
591.837	32108.5
592.177	38852.46
592.517	41755.69
592.857	37732.83
593.198	33087.19
593.538	27297.62
593.878	25831.7
594.218	27573.43
594.558	29635.45
594.898	28022.23
595.237	24734.01
595.577	21856.06
595.917	20037.33
596.257	21680.5
596.596	23001.87
596.936	23371.69
597.276	21926.77
597.615	22926.29
597.955	29555.03
598.294	33146.12
598.633	33084.97
598.973	30791.06
599.312	30867.36
599.651	30454.14
599.991	29245.2
600.33	28121.49
600.669	26750.03
601.008	24922.7
601.347	23296.35
601.686	24699.9
602.025	24531.82
602.364	26966.59
602.702	27648.84
603.041	27341.58
603.38	25027.48
603.719	22811.92
604.057	21591.85
604.396	21802.78
604.734	24037.15
605.073	27851
605.411	27162.79
605.75	25257.17
606.088	23157.7
606.426	24190.01
606.764	24728.85
607.103	23229.36
607.441	21690.57
607.779	20738.45
608.117	20985.89
608.455	19232.93
608.793	19082.23
609.131	21692.28
609.469	22799.41
609.806	22108.69
610.144	18976.32
610.482	18693
610.819	18863.75
611.157	18615.61
611.495	17338.97
611.832	17261.36
612.17	17518.11
612.507	17829.02
612.844	17529.97
613.182	17379.01
613.519	17783.34
613.856	17836.92
614.193	18269.45
614.53	19161.28
614.867	18986.42
615.205	17210.44
615.541	15994.09
615.878	14754.34
616.215	15084.02
616.552	14868.68
616.889	15585.49
617.226	15797.06
617.562	14815.87
617.899	13190.17
618.235	11924.31
618.572	11124.45
618.908	12008.66
619.245	12965.25
619.581	13383.76
619.918	11317.24
620.254	8999.79
620.59	8828.01
620.926	10028.22
621.262	11208.95
621.599	11182.06
621.935	11509.55
622.271	12352.94
622.606	12972.54
622.942	12248.09
623.278	11670.01
623.614	12685
623.95	12840.13
624.285	12381.92
624.621	11009.42
624.957	10380.43
625.292	9883.14
625.628	9293.8
625.963	9161.29
626.299	9548.12
626.634	9841.41
626.969	9427.7
627.304	8014.77
627.64	7150.07
627.975	7261.09
628.31	8180.98
628.645	8590.05
628.98	8195.26
629.315	8022.82
629.65	7808.21
629.985	7776.18
630.319	7224.97
630.654	7082.99
630.989	7020.84
631.323	6830.24
631.658	6318.1
631.993	5859.02
632.327	5712.42
632.662	5818.41
632.996	6068.97
633.33	6137.27
633.665	5861.94
633.999	5477.16
634.333	5522.98
634.667	5520.31
635.001	5770.34
635.335	6261.82
635.669	6685.08
636.003	6556.84
636.337	5955.31
636.671	5371.84
637.005	5064.53
637.339	5186.78
637.672	5495.01
638.006	5871.76
638.339	5628.39
638.673	5314.2
639.006	5040.44
639.34	4984.46
639.673	4880.45
640.007	4845.84
640.34	4691.95
640.673	4639.25
641.006	4570.36
641.34	4385.51
641.673	4184.03
642.006	4054.95
642.339	4236.47
642.672	4243.23
643.004	4168.35
643.337	3985.6
643.67	3933.82
644.003	4022.45
644.336	4054.68
644.668	4032.75
645.001	3946.29
645.333	3790.77
645.666	3572.88
645.998	3439.84
646.331	3355.49
646.663	3491.66
646.995	3919.44
647.327	4547.21
647.66	5131.16
647.992	5306.99
648.324	5377.18
648.656	5224.2
648.988	4858.99
649.32	4264.3
649.652	3880.64
649.983	3692.91
650.315	3655.37
650.647	3812.5
650.979	4197.28
651.31	4523.24
651.642	4663.18
651.973	4758.32
652.305	4717.48
652.636	4665.87
652.967	4414.91
653.299	4258.09
653.63	4372.02
653.961	5104.41
654.292	9515.27
654.623	68129.6
654.955	68129.6
655.286	68129.6
655.616	68129.6
655.947	68129.6
656.278	68129.6
656.609	60386.67
656.94	34682.36
657.27	25355.83
657.601	18929.28
657.932	13161.32
658.262	8821.55
658.593	6116.63
658.923	4505.2
659.254	3747.56
659.584	3342.11
659.914	3062.45
660.244	2931.31
660.575	2926.65
660.905	2942.57
661.235	2994.72
661.565	3025.99
661.895	3008.98
662.225	2939
662.555	2892.32
662.884	2962.61
663.214	3095.34
663.544	3183.25
663.873	3203.5
664.203	3323.53
664.533	3460.3
664.862	3457.85
665.192	3301.94
665.521	3018.31
665.85	2795.56
666.18	2612.44
666.509	2636.42
666.838	2744.38
667.167	2821.41
667.496	2741.63
667.825	2722.09
668.154	2731.45
668.483	2778.23
668.812	2863.74
669.141	2961.51
669.47	2971.67
669.798	2998.01
670.127	2938.18
670.456	3323.53
670.784	4152.39
671.113	4824.91
671.441	5352.9
671.77	5141.86
672.098	4656.73
672.426	3876.57
672.755	3440.39
673.083	3298.39
673.411	3309.87
673.739	3188.17
674.067	2932.96
674.395	2927.2
674.723	3094.24
675.051	3173.94
675.379	3174.49
675.706	3080.81
676.034	2946.96
676.362	2968.92
676.689	3371.06
677.017	3884.17
677.344	4105.85
677.672	3985.6
677.999	3913.2
678.327	4093.67
678.654	4482.57
678.981	4731.45
679.308	4629.03
679.636	4285.37
679.963	3882.27
680.29	3820.65
680.617	3948.19
680.944	4138.32
681.271	3874.67
681.597	3374.06
681.924	3017.21
682.251	2996.91
682.578	3361.77
682.904	3841.28
683.231	4140.76
683.557	4355.83
683.884	4532.94
684.21	4887.96
684.536	5179.83
684.863	5355.3
685.189	5158.17
685.515	4686.3
685.841	4384.7
686.167	4377.68
686.493	4517.59
686.819	4376.61
687.145	3983.43
687.471	3513.2
687.797	3297.85
688.123	3309.6
688.448	3576.42
688.774	3722.55
689.1	3683.94
689.425	3369.69
689.751	3323.26
690.076	3688.29
690.402	4195.12
690.727	4422.19
691.052	4247.28
691.377	3957.14
691.703	3774.2
692.028	3791.58
692.353	3950.9
692.678	3911.3
693.003	3654.01
693.328	3145.74
693.652	2849.17
693.977	2974.14
694.302	3349.21
694.627	3519.2
694.951	3182.15
695.276	2732.27
695.6	2656.26
695.925	3417.47
696.249	4355.02
696.574	4837.52
696.898	4441.87
697.222	3962.02
697.546	3648.02
697.871	3502.84
698.195	3432.75
698.519	3275.7
698.843	3135.88
699.167	2869.24
699.491	2692.35
699.814	2664.25
700.138	2602.79
700.462	2543.49
700.786	2560.32
701.109	2746.04
701.433	3009.25
701.756	3124.38
702.08	3133.42
702.403	3027.36
702.726	2801.33
703.05	2636.7
703.373	2606.37
703.696	2539.35
704.019	2456.79
704.342	2271.48
704.665	2078.23
704.988	2146.49
705.311	2363.64
705.634	2962.88
705.957	3628.7
706.28	4206.2
706.602	4360.15
706.925	4122.63
707.247	3793.21
707.57	3512.38
707.892	3291.01
708.215	3039.97
708.537	2818.93
708.859	2825.26
709.182	2887.1
709.504	3065.19
709.826	3171.75
710.148	3061.35
710.47	2898.08
710.792	2735.3
711.114	2546.52
711.436	2418.94
711.758	2501.26
712.079	2617.4
712.401	2850.82
712.723	3089.58
713.044	3416.65
713.366	3575.6
713.687	3436.3
714.009	3285.82
714.33	3126.57
714.652	2985.66
714.973	2793.36
715.294	2513.95
715.615	2248.22
715.936	2146.22
716.257	2119.03
716.578	2099.6
716.899	2243.79
717.22	2501.53
717.541	2631.18
717.862	2655.71
718.182	2672.24
718.503	2709.42
718.824	2717.68
719.144	2604.17
719.465	2479.99
719.785	2628.98
720.105	2677.75
720.426	2733.65
720.746	2690.42
721.066	2651.58
721.386	2535.48
721.706	2451.82
722.026	2333.21
722.346	2322.7
722.666	2374.43
722.986	2466.18
723.306	2414.79
723.626	2357
723.946	2368.62
724.265	2636.42
724.585	2899.46
724.904	2955.2
725.224	2974.96
725.543	2940.1
725.863	2907.97
726.182	2730.35
726.501	2589.55
726.82	2564.73
727.14	2744.11
727.459	2907.15
727.778	2897.53
728.097	2902.48
728.416	2971.12
728.734	3078.62
729.053	3227.03
729.372	3238.79
729.691	3418.56
730.009	3733.7
730.328	3996.44
730.647	3996.44
730.965	3736.42
731.283	3469.03
731.602	3373.79
731.92	3478.3
732.238	3635.23
732.557	3769.85
732.875	3905.06
733.193	4378.49
733.511	4647.32
733.829	4362.04
734.147	3884.44
734.465	3554.9
734.782	3571.51
735.1	3703.52
735.418	3707.6
735.735	3777.46
736.053	3755.72
736.371	3677.13
736.688	3403.55
737.005	3085.47
737.323	2835.43
737.64	2875.56
737.957	3209.79
738.274	3733.43
738.592	3948.19
738.909	3714.94
739.226	3144.1
739.543	2732.27
739.86	2475.02
740.176	2339.02
740.493	2190.3
740.81	2098.49
741.127	2203.05
741.443	2463.7
741.76	2600.03
742.076	2582.38
742.393	2329.61
742.709	2116.81
743.025	2037.13
743.342	2088.22
743.658	2161.19
743.974	2249.6
744.29	2281.73
744.606	2177.55
744.922	2205.83
745.238	2159.53
745.554	2065.46
745.87	2044.91
746.186	2225.78
746.501	2347.87
746.817	2291.42
747.132	2030.74
747.448	1865.27
747.763	1873.07
748.079	2095.72
748.394	2449.89
748.71	2748.51
749.025	3116.71
749.34	3222.65
749.655	3116.43
749.97	2879.68
750.285	2842.03
750.6	2970.29
750.915	3088.21
751.23	3014.74
751.545	2809.59
751.859	2575.21
752.174	2540.17
752.489	2851.65
752.803	3117.26
753.118	3205.14
753.432	2997.46
753.747	2856.32
754.061	3016.66
754.375	3218.82
754.689	3405.19
755.004	3487.85
755.318	3649.65
755.632	3954.7
755.946	4112.35
756.26	4516.24
756.573	4991.43
756.887	5237.02
757.201	4982.32
757.515	4249.71
757.828	3744.3
758.142	3736.96
758.455	4286.45
758.769	4764.5
759.082	4967.58
759.396	5166.19
759.709	5299.52
760.022	5188.38
760.335	4694.37
760.648	4052.25
760.962	3532.01
761.275	3187.9
761.587	3142.45
761.9	3086.84
762.213	3340.2
762.526	3524.92
762.839	3631.96
763.151	3788.6
763.464	4247.55
763.776	4938.1
764.089	5084.87
764.401	4701.89
764.714	4222.96
765.026	3734.24
765.338	3331.18
765.65	2849.45
765.962	2551.49
766.275	2408.99
766.587	2406.22
766.898	2537.97
767.21	2903.85
767.522	3334.73
767.834	3593.58
768.146	3499.03
768.457	3181.6
768.769	2838.73
769.08	2869.51
769.392	3086.57
769.703	3369.97
770.015	3665.98
770.326	3655.91
770.637	3366.14
770.948	2915.39
771.26	2593.41
771.571	2569.97
771.882	2665.08
772.193	2650.48
772.504	2505.12
772.814	2385.49
773.125	2305.54
773.436	2198.07
773.747	2027.41
774.057	2003.23
774.368	1944.02
774.678	1861.1
774.989	1749.64
775.299	1684.09
775.609	1703.9
775.919	1740.44
776.23	1746.3
776.54	1721.76
776.85	1762.47
777.16	1833.81
777.47	2016.02
777.78	2275.08
778.089	2426.95
778.399	2419.77
778.709	2264.56
779.019	2001.29
779.328	1837.7
779.638	1861.65
779.947	2235.48
780.257	2618.78
780.566	2835.71
780.875	2689.32
781.185	2460.11
781.494	2368.07
781.803	2247.67
782.112	2214.97
782.421	2259.02
782.73	2321.87
783.039	2272.04
783.348	1965.99
783.656	1784.21
783.965	1724.27
784.274	1856.64
784.582	1956.26
784.891	1988.78
785.199	1940.13
785.508	1820.71
785.816	1778.36
786.124	1886.98
786.432	2094.61
786.741	2228.55
787.049	2232.71
787.357	2181.16
787.665	2210.54
787.973	2196.68
788.281	2056.02
788.588	1827.12
788.896	1681.86
789.204	1556.72
789.511	1539.94
789.819	1508.06
790.126	1469.44
790.434	1480.64
790.741	1499.95
791.049	1463.57
791.356	1382.07
791.663	1338.9
791.97	1310.29
792.277	1337.5
792.584	1588.02
792.891	1984.61
793.198	2244.9
793.505	2332.1
793.812	2182.82
794.119	2132.07
794.425	2035.74
794.732	1783.38
795.038	1526.24
795.345	1293.46
795.651	1195.48
795.958	1214.3
796.264	1339.18
796.57	1449.85
796.876	1482.88
797.183	1408.96
797.489	1308.33
797.795	1329.08
798.101	1288.97
798.406	1303.84
798.712	1216.27
799.018	1179.18
799.324	1144.61
799.629	1166.82
799.935	1147.42
800.24	1156.42
800.546	1100.18
800.851	1045.3
801.157	998.55
801.462	973.76
801.767	967.56
802.072	1068.95
802.377	1135.33
802.682	1150.51
802.987	1137.58
803.292	1061.07
803.597	997.71
803.902	1009.82
804.207	1040.23
804.511	1101.02
804.816	1213.18
805.12	1390.47
805.425	1543.3
805.729	1548.61
806.034	1401.96
806.338	1323.2
806.642	1248.28
806.946	1245.75
807.251	1245.47
807.555	1295.43
807.859	1306.65
808.162	1211.77
808.466	1168.78
808.77	1081.05
809.074	1081.61
809.378	986.44
809.681	1047.27
809.985	1036.01
810.288	1037.98
810.592	977.99
810.895	944.73
811.198	893.69
811.502	832.16
811.805	831.59
812.108	849.66
812.411	947.27
812.714	1093.15
813.017	1162.6
813.32	1174.97
813.623	1103.27
813.926	981.65
814.228	915.4
814.531	843.45
814.833	814.93
815.136	834.98
815.438	830.46
815.741	866.6
816.043	889.45
816.345	902.99
816.648	885.5
816.95	883.53
817.252	836.39
817.554	815.5
817.856	814.37
818.158	777.36
818.46	782.45
818.761	764.08
819.063	809.85
819.365	825.66
819.666	911.74
819.968	981.09
820.269	1002.78
820.571	948.39
820.872	879.86
821.173	840.35
821.475	799.96
821.776	796.01
822.077	765.21
822.378	758.14
822.679	766.06
822.98	767.75
823.281	719.69
823.581	741.75
823.882	703.57
824.183	753.34
824.483	781.32
824.784	834.42
825.084	841.76
825.385	816.06
825.685	772.27
825.985	748.53
826.286	785.84
826.586	809.57
826.886	813.24
827.186	808.15
827.486	765.49
827.786	770.3
828.086	751.08
828.386	790.92
828.685	756.16
828.985	718.28
829.285	719.41
829.584	715.73
829.884	656.6
830.183	646.41
830.482	635.94
830.782	607.62
831.081	584.11
831.38	605.35
831.679	600.82
831.978	629.14
832.277	667.36
832.576	671.32
832.875	679.52
833.174	642.45
833.472	689.14
833.771	656.88
834.07	686.6
834.368	662.26
834.667	633.39
834.965	628.86
835.263	660.56
835.562	649.81
835.86	602.52
836.158	575.89
836.456	565.97
836.754	547.83
837.052	564.84
837.35	570.79
837.648	588.64
837.946	565.97
838.243	562.57
838.541	539.61
838.839	582.69
839.136	560.02
839.434	592.04
839.731	581.27
840.028	579.85
840.326	571.64
840.623	574.47
840.92	573.62
841.217	537.34
841.514	556.33
841.811	539.32
842.108	550.66
842.405	539.61
842.701	534.5
842.998	543.86
843.295	537.91
843.591	526.56
843.888	530.53
844.184	562.57
844.481	557.47
844.777	531.67
845.073	532.8
845.369	553.78
845.665	543.01
845.962	527.13
846.258	553.78
846.553	541.03
846.849	503.03
847.145	522.31
847.441	553.5
847.737	528.27
848.032	507.56
848.328	527.13
848.623	502.74
848.919	505.01
849.214	512.39
849.509	499.62
849.805	510.97
850.1	528.55
850.395	494.23
850.69	498.77
850.985	510.68
851.28	504.73
851.575	514.65
851.869	509.55
852.164	526.85
852.459	573.9
852.753	636.22
853.048	675
853.342	691.41
853.637	668.21
853.931	665.09
854.225	670.47
854.52	634.52
854.814	623.48
855.108	629.42
855.402	608.75
855.696	575.6
855.99	573.05
856.283	570.79
856.577	584.96
856.871	562.85
857.164	566.82
857.458	543.58
857.751	537.91
858.045	539.32
858.338	565.4
858.632	535.35
858.925	535.07
859.218	499.34
859.511	522.03
859.804	504.44
860.097	490.83
860.39	536.77
860.683	514.37
860.976	517.49
861.268	522.03
861.561	507.28
861.854	515.22
862.146	493.1
862.439	501.61
862.731	516.64
863.023	495.93
863.316	504.73
863.608	520.04
863.9	539.89
864.192	513.8
864.484	515.79
864.776	487.42
865.068	508.41
865.36	497.07
865.651	518.62
865.943	488.56
866.235	503.59
866.526	493.38
866.818	479.19
867.109	540.74
867.4	518.91
867.692	509.83
867.983	505.01
868.274	502.46
868.565	511.53
868.856	494.52
869.147	478.91
869.438	482.03
869.729	497.07
870.02	487.14
870.31	506.15
870.601	501.89
870.892	503.88
871.182	522.03
871.473	518.06
871.763	523.45
872.053	487.14
872.343	488.84
872.634	495.93
872.924	486.86
873.214	485.15
873.504	500.47
873.794	480.33
874.084	516.07
874.373	483.73
874.663	462.17
874.953	477.49
875.242	497.07
875.532	510.12
875.821	499.05
876.111	516.92
876.4	480.05
876.689	462.45
876.978	480.05
877.268	514.09
877.557	479.19
877.846	483.45
878.134	478.34
878.423	478.34
878.712	478.34
