Data from FLMS007011_11-53-48-512.txt Node
Date: Thu Apr 21 11:53:48 MDT 2016
User: lab_user
Spectrometer: FLMS00701
Autoset integration time: false
Trigger mode: 0
Integration Time (sec): 5.000000E-3
Scans to average: 10
Electric dark correction enabled: true
Nonlinearity correction enabled: true
Boxcar width: 0
XAxis mode: Wavelengths
Stop averaging: false
Number of Pixels in Spectrum: 2048
>>>>>Begin Spectral Data<<<<<
178.41	26.79
178.791	26.79
179.172	26.79
179.553	-49.79
179.934	-80.39
180.316	-43.22
180.697	-61.51
181.078	-45.5
181.459	-50.36
181.84	-54.37
182.221	-19.21
182.602	-14.06
182.983	-18.35
183.364	19.65
183.744	51.06
184.125	62.19
184.506	98.15
184.887	124.96
185.268	142.07
185.648	146.34
186.029	159.74
186.41	215.3
186.791	214.16
187.171	268.26
187.552	422.34
187.932	417.23
188.313	465.21
188.694	473.72
189.074	511.74
189.455	551.15
189.835	537.83
190.216	590.54
190.596	574.39
190.977	591.68
191.357	623.68
191.737	619.15
192.118	635.57
192.498	668.98
192.878	690.76
193.258	683.41
193.639	678.03
194.019	689.63
194.399	715.94
194.779	721.88
195.159	752.13
195.54	768.24
195.92	778.13
196.3	730.08
196.68	790.84
197.06	803.27
197.44	827
197.82	832.64
198.2	817.11
198.58	840.83
198.959	826.15
199.339	821.07
199.719	877.24
200.099	867.37
200.479	874.98
200.858	907.43
201.238	908.84
201.618	880.06
201.998	906.3
202.377	921.53
202.757	927.45
203.136	929.71
203.516	943.81
203.896	973.68
204.275	989.46
204.655	1019.04
205.034	1031.43
205.414	1022.14
205.793	1072.25
206.172	1057.89
206.552	1085.19
206.931	1059.3
207.31	1107.69
207.69	1128.79
208.069	1140.88
208.448	1131.04
208.827	1189.22
209.207	1228.54
209.586	1231.35
209.965	1247.36
210.344	1285.53
210.723	1317.23
211.102	1313.58
211.481	1363.21
211.86	1362.65
212.239	1393.76
212.618	1418.41
212.997	1443.89
213.376	1485.32
213.755	1487.84
214.134	1555.24
214.513	1565.03
214.891	1626.5
215.27	1629.85
215.649	1680.38
216.028	1770.2
216.406	1785.53
216.785	1799.74
217.164	1865.47
217.542	1949.23
217.921	1953.4
218.3	1993.43
218.678	2086.76
219.057	2171.37
219.435	2197.43
219.814	2238.17
220.192	2331.47
220.57	2437.65
220.949	2499.25
221.327	2610.43
221.705	2693.92
222.084	2821.88
222.462	2915.31
222.84	2983.66
223.218	3148.95
223.597	3263.05
223.975	3388.73
224.353	3487.5
224.731	3622.36
225.109	3793.68
225.487	3957.6
225.865	4176.39
226.243	4276.92
226.621	4427.51
226.999	4684.08
227.377	4877.42
227.755	5000.73
228.133	5184.03
228.511	5405.64
228.889	5618.2
229.266	5767.61
229.644	5957.09
230.022	6319.87
230.4	6490.88
230.777	6728.68
231.155	6982.47
231.533	7228.82
231.91	7443.53
232.288	7666.14
232.665	7903.92
233.043	8246.81
233.42	8484.16
233.798	8712.24
234.175	9011.83
234.553	9317.12
234.93	9559.09
235.307	9757.83
235.685	10085.93
236.062	10319.38
236.439	10577.42
236.816	10832.45
237.194	11178.44
237.571	11447.43
237.948	11747.08
238.325	11877.25
238.702	12201.37
239.079	12404.77
239.456	12792.05
239.833	12985.53
240.21	13299.21
240.587	13570.09
240.964	13770.59
241.341	14088.86
241.718	14380.75
242.095	14458.84
242.472	14756.26
242.849	15067.52
243.225	15337.65
243.602	15590.64
243.979	15604.05
244.356	16104.89
244.732	16290.58
245.109	16510.59
245.486	16749.28
245.862	16953.92
246.239	17261.54
246.615	17387.84
246.992	17622.77
247.368	17835.86
247.745	18057.98
248.121	18359.4
248.497	18469.12
248.874	18835.35
249.25	19064.18
249.626	19266.84
250.003	19494.78
250.379	19875.17
250.755	19892.39
251.131	20194.15
251.507	20295.69
251.884	20613.54
252.26	20745.26
252.636	20991.47
253.012	21184.81
253.388	21412.26
253.764	21634.26
254.14	21625.92
254.516	21790.93
254.892	21810.81
255.268	22095.12
255.643	22111.57
256.019	22385.77
256.395	22520.52
256.771	22653.55
257.147	22903.4
257.522	22925.73
257.898	23130.4
258.274	23184.88
258.649	23298.49
259.025	23460.2
259.4	23534.55
259.776	23682.03
260.151	23774.04
260.527	23761.04
260.902	23944.33
261.278	24064.07
261.653	24074.38
262.028	24041.99
262.404	24256.69
262.779	24366.12
263.154	24485.62
263.53	24629.41
263.905	24523.65
264.28	24528.56
264.655	24641.19
265.03	24479.48
265.405	24720.2
265.781	24698.6
266.156	24844.36
266.531	24920.92
266.906	24858.1
267.281	25058.09
267.655	24754.06
268.03	24859.57
268.405	25015.64
268.78	24945.95
269.155	25065.21
269.53	24938.34
269.904	24938.59
270.279	25016.37
270.654	25062.75
271.029	25011.71
271.403	25018.34
271.778	25013.18
272.152	24979.57
272.527	24870.86
272.901	25221.52
273.276	25233.79
273.65	25219.81
274.025	25167.54
274.399	25128.52
274.774	25152.32
275.148	25288.76
275.522	25278.7
275.897	25193.06
276.271	25104.72
276.645	25348.4
277.019	25397.23
277.393	25635.29
277.768	25324.84
278.142	25328.03
278.516	25201.65
278.89	25300.3
279.264	25412.94
279.638	25458.09
280.012	25481.65
280.386	25256.12
280.76	25412.2
281.133	25450
281.507	25272.08
281.881	25396.74
282.255	25445.33
282.629	25247.78
283.002	25229.62
283.376	25344.72
283.75	25206.31
284.123	25305.94
284.497	25178.33
284.87	25348.64
285.244	25270.11
285.618	25276
285.991	25122.87
286.364	25023.74
286.738	25137.84
287.111	25143
287.485	25006.07
287.858	24888.04
288.231	24768.78
288.605	24870.37
288.978	24985.7
289.351	24652.96
289.724	24604.87
290.097	24590.64
290.47	24423.29
290.843	24390.9
291.217	24309.44
291.59	24198.29
291.963	24252.51
292.336	24041.5
292.708	23995.61
293.081	23884.7
293.454	24030.95
293.827	23915.13
294.2	23693.8
294.573	23680.06
294.945	23557.13
295.318	23540.2
295.691	23452.84
296.064	23343.89
296.436	23193.96
296.809	23337.75
297.181	23182.42
297.554	23052.85
297.926	23083.77
298.299	22970.88
298.671	23175.06
299.044	22984.63
299.416	23076.9
299.788	23007.94
300.161	22816.27
300.533	22839.83
300.905	23114.2
301.278	23000.58
301.65	23087.45
302.022	22952.72
302.394	22784.86
302.766	22893.82
303.138	22788.54
303.51	22859.47
303.882	22861.92
304.254	22732.58
304.626	22966.22
304.998	22966.22
305.37	22651.84
305.742	22790.99
306.114	22867.56
306.485	22853.09
306.857	22907.08
307.229	22747.06
307.601	22701.41
307.972	22596.61
308.344	22778.97
308.716	22660.18
309.087	22690.86
309.459	22609.37
309.83	22592.68
310.202	22568.39
310.573	22722.27
310.945	22614.28
311.316	22475.85
311.687	22534.02
312.059	22448.61
312.43	22608.15
312.801	22496.47
313.172	22316.79
313.544	22300.1
313.915	22499.66
314.286	22373.5
314.657	22422.1
315.028	22331.52
315.399	22322.68
315.77	22411.3
316.141	22258.37
316.512	22276.78
316.883	22155.02
317.254	22216.39
317.625	22013.37
317.996	22069.35
318.366	22125.81
318.737	21977.77
319.108	21938.98
319.478	21825.79
319.849	21937.26
320.22	21986.36
320.59	21936.77
320.961	21754.59
321.331	21824.81
321.702	21660.78
322.072	21502.64
322.443	21599.88
322.813	21498.71
323.184	21372.96
323.554	21286.5
323.924	21262.18
324.295	21174.74
324.665	21106.2
325.035	21124.62
325.405	20979.92
325.775	20874.27
326.145	20743.05
326.515	20639.34
326.886	20621.65
327.256	20519.4
327.626	20120.38
327.995	19966.67
328.365	19547.94
328.735	19123.78
329.105	18631.56
329.475	18643.88
329.845	18853.33
330.215	19677.12
330.584	20302.33
330.954	21391.38
331.324	22106.42
331.693	22486.9
332.063	22635.88
332.432	22367.36
332.802	21691.97
333.171	21099.57
333.541	20426.97
333.91	20345.11
334.28	20128.49
334.649	20102.18
335.018	20070.7
335.388	20034.31
335.757	19945.03
336.126	19843.93
336.495	19873.45
336.865	19779.47
337.234	19581.4
337.603	19607.98
337.972	19604.78
338.341	19585.1
338.71	19569.35
339.079	19473.86
339.448	19622.5
339.817	19503.88
340.186	19487.89
340.554	19396.32
340.923	19391.65
341.292	19250.1
341.661	19259.7
342.029	19265.61
342.398	19247.14
342.767	19133.38
343.135	19185.83
343.504	19051.62
343.872	19177.21
344.241	19048.42
344.609	18938.08
344.978	18992.51
345.346	18959.01
345.715	18911.72
346.083	18828.2
346.451	18867.38
346.82	18760.94
347.188	18820.32
347.556	18661.14
347.924	18705
348.292	18443.97
348.66	18500.18
349.028	18463.45
349.396	18284.92
349.764	18421.29
350.132	18455.07
350.5	18352
350.868	18235.84
351.236	18307.12
351.604	18108.31
351.972	18222.28
352.34	18015.04
352.707	18064.64
353.075	18161.1
353.443	17917.56
353.81	17816.85
354.178	17876.59
354.545	17925.21
354.913	17859.06
355.28	17697.11
355.648	17818.33
356.015	17670.19
356.383	17735.87
356.75	17686.49
357.117	17611.16
357.485	17546.7
357.852	17534.1
358.219	17567.69
358.586	17509.89
358.954	17413.04
359.321	17393.27
359.688	17246.46
360.055	17271.43
360.422	17301.34
360.789	17182.43
361.156	17221.25
361.523	17141.89
361.89	17028.38
362.256	17103.81
362.623	16897.02
362.99	16966.78
363.357	16927.7
363.724	16847.53
364.09	16946
364.457	16743.59
364.823	16845.8
365.19	16752.5
365.557	16927.45
365.923	16724.77
366.29	16792.35
366.656	16816.85
367.022	16897.27
367.389	16666.1
367.755	16572.01
368.121	16514.8
368.488	16557.15
368.854	16385.49
369.22	16372.11
369.586	16210.51
369.952	16100.42
370.318	15832.98
370.684	16006.92
371.051	16004.69
371.416	15772.16
371.782	15823.79
372.148	15861.52
372.514	15620.69
372.88	15621.93
373.246	15574.49
373.612	15720.27
373.977	15684.52
374.343	15806.17
374.709	15954.08
375.074	15827.52
375.44	15707.61
375.806	15559.83
376.171	15646.27
376.537	15665.4
376.902	15637.33
377.268	15828.76
377.633	15754.04
377.998	15807.91
378.364	16081.82
378.729	16129.19
379.094	15971.19
379.459	15560.83
379.825	15440.32
380.19	15459.95
380.555	15284.2
380.92	15020.23
381.285	14990.11
381.65	15082.45
382.015	15058.81
382.38	15030.19
382.745	14828.26
383.11	14731.09
383.474	14879.81
383.839	14764.48
384.204	14716.64
384.569	14633.89
384.933	14513.21
385.298	14494.51
385.663	14432.64
386.027	14502.99
386.392	14651.34
386.756	14741.56
387.121	14768.47
387.485	14972.94
387.849	15071.01
388.214	14866.36
388.578	14686.98
388.942	14447.11
389.307	14399.71
389.671	14370.27
390.035	14408.69
390.399	14568.33
390.763	14552.37
391.127	14796.37
391.492	15135.95
391.856	15542.19
392.219	15725.49
392.583	15737.16
392.947	15294.64
393.311	14743.3
393.675	14663.06
394.039	14396.22
394.403	14455.1
394.766	14315.36
395.13	14293.39
395.494	14208.01
395.857	14323.35
396.221	14357.29
396.584	14645.86
396.948	14849.18
397.311	15290.16
397.675	15553.62
398.038	15710.09
398.401	15265.79
398.765	14741.56
399.128	14414.68
399.491	14090.61
399.854	13977.16
400.218	13909.4
400.581	13913.16
400.944	13695.27
401.307	13409.51
401.67	13436.82
402.033	13350.35
402.396	13330.05
402.759	13272.88
403.122	13364.64
403.485	13380.68
403.847	13543.54
404.21	13698.77
404.573	13901.65
404.936	14047.63
405.298	13841.63
405.661	13373.16
406.023	12960.66
406.386	12832.02
406.749	12777.72
407.111	12610.97
407.473	12853.38
407.836	13057.34
408.198	13259.58
408.561	13182.07
408.923	13214.94
409.285	13149.2
409.647	13059.85
410.009	12695.5
410.372	12720.14
410.734	12571.96
411.096	12537.98
411.458	12562.4
411.82	12724.42
412.182	12889.32
412.544	12841.32
412.906	12982.51
413.267	12887.56
413.629	12682.92
413.991	12564.66
414.353	12529.42
414.714	12245.49
415.076	12212.97
415.438	12315.83
415.799	12363.2
416.161	12196.57
416.522	12058.06
416.884	11920.45
417.245	11889.63
417.607	11989.4
417.968	11964.9
418.329	12036.1
418.691	11993.44
419.052	12096.17
419.413	12127.71
419.774	12260.12
420.135	12693.99
420.497	13080.44
420.858	13594.38
421.219	13637.44
421.58	13413.27
421.941	12949.61
422.302	12519.61
422.662	12446.33
423.023	12195.57
423.384	12092.64
423.745	12179.17
424.106	12188.25
424.466	12410.31
424.827	12184.22
425.187	11810.79
425.548	11579.61
425.909	11358.24
426.269	11394.23
426.63	11554.8
426.99	11825.45
427.35	11775.65
427.711	11796.89
428.071	11926.77
428.431	12235.91
428.792	13151.71
429.152	14071.87
429.512	14375.76
429.872	14160.56
430.232	13880.15
430.592	13158.74
430.952	12356.9
431.312	11839.6
431.672	11407.91
432.032	11235.77
432.392	11540.12
432.752	12456.66
433.111	13252.06
433.471	13418.28
433.831	12447.84
434.19	12135.03
434.55	12125.44
434.91	11885.08
435.269	12029.29
435.629	12101.47
435.988	12285.58
436.348	12164.04
436.707	11697.51
437.066	11542.4
437.426	11720.53
437.785	11889.13
438.144	11948.99
438.503	11755.68
438.862	11561.63
439.222	11442.62
439.581	11252.51
439.94	11377.25
440.299	12105.25
440.658	12838.56
441.017	13076.17
441.376	12940.07
441.734	12621.03
442.093	12399.98
442.452	12573.47
442.811	12796.58
443.169	12775.97
443.528	12479.57
443.887	12265.92
444.245	12235.41
444.604	11930.3
444.962	11792.08
445.321	11813.32
445.679	11851.73
446.038	11985.61
446.396	11821.66
446.754	11462.88
447.112	11371.92
447.471	11247.95
447.829	11030.94
448.187	11084.02
448.545	11163.21
448.903	11113.97
449.261	11085.79
449.619	10927.03
449.977	10875.68
450.335	10642.87
450.693	10526.71
451.051	10502.76
451.409	10458.65
451.766	10517.54
452.124	10257.61
452.482	9995.15
452.839	9761.41
453.197	9737.58
453.555	9552.67
453.912	9611.43
454.27	9873.6
454.627	10031.73
454.984	10161.32
455.342	9987.99
455.699	9722.97
456.056	9671.7
456.414	9854.39
456.771	10138.07
457.128	10263.74
457.485	10417.09
457.842	10335.46
458.199	10364.03
458.556	10577.93
458.913	10423.98
459.27	10667.06
459.627	10398.73
459.984	10381.64
460.341	10477.01
460.697	10250.97
461.054	9843.9
461.411	9421.72
461.767	9103.8
462.124	9018.27
462.481	9216.3
462.837	9520.59
463.194	9969.83
463.55	9774.48
463.907	10221.86
464.263	10621.99
464.619	10970.99
464.976	11447.43
465.332	11580.11
465.688	11172.86
466.044	10294.37
466.4	9872.06
466.756	9665.03
467.112	9625.03
467.468	9618.87
467.824	9572.43
468.18	9362.88
468.536	9192.37
468.892	8991.73
469.248	8846.26
469.604	8698.03
469.959	8800.83
470.315	8776.82
470.671	8728.78
471.026	8815.8
471.382	8913.34
471.737	9182.59
472.093	9429.43
472.448	9657.6
472.804	9990.81
473.159	10119.93
473.514	10199.38
473.87	10328.06
474.225	10705.75
474.58	11330.86
474.935	11474.28
475.29	11145.19
475.645	10910.25
476	10885.85
476.355	10781.84
476.71	10670.88
477.065	11074.11
477.42	11486.69
477.775	11621.62
478.13	11509.99
478.485	11404.11
478.839	11685.88
479.194	12223.05
479.549	12652.48
479.903	12870.97
480.258	12527.16
480.612	12702.79
480.967	13287.17
481.321	13431.56
481.675	13135.4
482.03	12657.26
482.384	12319.86
482.738	12428.2
483.093	12549.06
483.447	13041.77
483.801	13892.15
484.155	14344.06
484.509	16267.53
484.863	34052.72
485.217	47560.04
485.571	51980.72
485.925	36486.34
486.279	23815.51
486.632	18583.75
486.986	16127.45
487.34	14399.71
487.694	13271.12
488.047	12954.89
488.401	13032.49
488.754	12885.3
489.108	12552.58
489.461	12364.96
489.815	12055.29
490.168	12189.01
490.522	12364.71
490.875	12454.14
491.228	12221.29
491.581	12254.07
491.935	12293.65
492.288	12188.5
492.641	12348.84
492.994	12294.15
493.347	12578.25
493.7	12728.95
494.053	12585.3
494.406	12404.77
494.759	11831.77
495.111	12211.45
495.464	13207.91
495.817	14086.11
496.169	13742.57
496.522	12652.73
496.875	11684.36
497.227	11242.11
497.58	11218.78
497.932	11538.85
498.285	11644.14
498.637	12163.28
498.989	12525.14
499.342	12576.24
499.694	12098.44
500.046	11677.28
500.398	12006.82
500.751	12463.71
501.103	12628.58
501.455	12634.87
501.807	12488.39
502.159	12469
502.511	12437.77
502.862	12481.84
503.214	12181.69
503.566	11677.28
503.918	11363.31
504.27	11325.79
504.621	11401.57
504.973	11246.43
505.324	11311.34
505.676	11624.91
506.027	11825.7
506.379	11167.53
506.73	10624.28
507.082	10646.44
507.433	11022.56
507.784	11392.7
508.136	11008.85
508.487	10891.44
508.838	10589.13
509.189	10482.36
509.54	10792.01
509.891	10652.55
510.242	10576.91
510.593	10521.11
510.944	10294.62
511.295	10142.16
511.646	9744.76
511.996	9810.6
512.347	9998.48
512.698	10064.97
513.049	9948.85
513.399	9787.29
513.75	9821.1
514.1	9622.97
514.451	9192.62
514.801	9065.68
515.152	9267.49
515.502	9510.58
515.852	9741.42
516.202	9771.92
516.553	9646.06
516.903	9263.89
517.253	9004.87
517.603	8969.3
517.953	8965.69
518.303	9440.99
518.653	9601.68
519.003	9572.43
519.353	9022.14
519.703	8540.06
520.052	8318.12
520.402	8485.71
520.752	8630.32
521.102	8572.13
521.451	8360.36
521.801	8339.89
522.15	8494.25
522.5	8699.33
522.849	8628.25
523.199	8880.58
523.548	8968.52
523.897	8884.71
524.246	8660.82
524.596	8325.89
524.945	8363.47
525.294	8349.22
525.643	8411.92
525.992	8453.09
526.341	8566.44
526.69	8409.07
527.039	8333.15
527.388	8148.21
527.737	8522.2
528.086	9135.22
528.434	9663.49
528.783	9427.89
529.132	8941.71
529.48	8608.08
529.829	8488.3
530.177	8419.69
530.526	8328.49
530.874	8418.91
531.223	8418.91
531.571	8439.11
531.919	8400.26
532.268	8765.2
532.616	9504.67
532.964	9960.87
533.312	10021.24
533.66	9817.52
534.008	9837.75
534.356	9906.36
534.704	9729.64
535.052	9574.49
535.4	9144.49
535.748	8625.41
536.095	8221.13
536.443	8070.3
536.791	8395.08
537.139	8865.1
537.486	9215.27
537.834	9481.56
538.181	9560.12
538.529	9440.47
538.876	9505.96
539.223	9290.64
539.571	8928.3
539.918	8775.78
540.265	9129.04
540.613	9537.79
540.96	9357.22
541.307	9293.98
541.654	9198.03
542.001	9242.8
542.348	9230.45
542.695	9166.11
543.042	9461.02
543.388	9612.97
543.735	9782.68
544.082	9842.61
544.429	9808.81
544.775	9389.86
545.122	8919.27
545.469	8460.86
545.815	8458.27
546.162	8576.53
546.508	9000.23
546.854	9633.75
547.201	10398.73
547.547	10815.92
547.893	10330.86
548.24	9452.55
548.586	8488.3
548.932	8173.12
549.278	8074.2
549.624	8262.37
549.97	8159.63
550.316	7852.14
550.662	7648.15
551.008	8077.05
551.353	9297.32
551.699	9969.06
552.045	9686.31
552.391	9056.92
552.736	8858.39
553.082	8814.51
553.427	8679.43
553.773	8143.53
554.118	7896.9
554.464	8290.64
554.809	8968.52
555.154	9442.79
555.5	9387.29
555.845	8833.1
556.19	8251.48
556.535	7851.36
556.88	8108.22
557.225	8257.96
557.57	7944.76
557.915	7582.16
558.26	7245.05
558.605	7296.34
558.95	7516.65
559.295	8397.67
559.639	9104.83
559.984	9826.74
560.329	10051.67
560.673	10054.23
561.018	9486.44
561.362	9023.17
561.707	8500.21
562.051	8611.7
562.395	8754.09
562.74	9342.57
563.084	9476.69
563.428	9922.23
563.772	9902.01
564.117	9896.89
564.461	10020.22
564.805	9875.65
565.149	9982.11
565.493	9935.03
565.836	10302.28
566.18	10451.26
566.524	11870.18
566.868	12850.37
567.212	13385.45
567.555	13592.38
567.899	14829.25
568.242	16185.47
568.586	18218.08
568.929	20722.9
569.273	23620.19
569.616	24041.5
569.96	24588.67
570.303	26059.4
570.646	27005.32
570.989	28415.06
571.333	28343.06
571.676	26635.06
572.019	22125.32
572.362	23540.93
572.705	27913.58
573.048	31972.93
573.391	34070.49
573.733	35139.29
574.076	35994.24
574.419	34556.65
574.762	30568.5
575.104	26629.9
575.447	25971.29
575.789	29541.68
576.132	34779.55
576.474	35095.34
576.817	40764.79
577.159	46996.64
577.501	48150.68
577.844	41543.25
578.186	31643.12
578.528	27944.53
578.87	27955.34
579.212	29950.21
579.554	33138.16
579.896	32517.22
580.238	35229.92
580.58	47598.8
580.922	55090.11
581.264	58620.7
581.606	49835.55
581.947	42778.25
582.289	33793.93
582.631	26712.4
582.972	23059.72
583.314	23758.09
583.655	25507.67
583.997	30795.66
584.338	36633.69
584.679	40612.22
585.021	39306.5
585.362	33070.36
585.703	28048.95
586.044	26529.49
586.385	30229.92
586.726	34090.47
587.067	32795.73
587.408	28468.87
587.749	25641.18
588.09	23564
588.431	21271.52
588.772	19079.95
589.113	19789.07
589.453	20414.93
589.794	19465
590.134	17445.9
590.475	16352.04
590.815	16529.42
591.156	16782.94
591.496	17200.98
591.837	23436.89
592.177	29222.76
592.517	32991.71
592.857	29611.52
593.198	25875.32
593.538	20721.18
593.878	18761.43
594.218	20020.04
594.558	22593.67
594.898	21715.05
595.237	19262.16
595.577	16587.61
595.917	14684.49
596.257	15983.1
596.596	16923.99
596.936	18408.22
597.276	16711.16
597.615	16730.47
597.955	21391.87
598.294	25658.36
598.633	25983.56
598.973	23460.69
599.312	23064.87
599.651	23147.57
599.991	22030.56
600.33	21385.49
600.669	20148.9
601.008	18919.11
601.347	17291.95
601.686	18357.43
602.025	18384.8
602.364	20352.73
602.702	21062.22
603.041	21209.13
603.38	19104.33
603.719	17350.27
604.057	15942.17
604.396	16122.25
604.734	17245.97
605.073	21297.56
605.411	21058.79
605.75	19766.19
606.088	17082.54
606.426	17837.34
606.764	18629.84
607.103	17986.17
607.441	16272.48
607.779	15383.89
608.117	15859.53
608.455	14794.38
608.793	13949.41
609.131	15997.49
609.469	17600.3
609.806	17445.9
610.144	14532.17
610.482	13849.64
610.819	14228.23
611.157	14077.87
611.495	13091.98
611.832	12854.64
612.17	13062.11
612.507	13592.38
612.844	13202.9
613.182	13176.05
613.519	13308.23
613.856	13411.26
614.193	13501.21
614.53	14410.44
614.867	14745.3
615.205	13186.09
615.541	12128.22
615.878	10899.07
616.215	11201.27
616.552	11009.1
616.889	11584.16
617.226	12041.4
617.562	11461.11
617.899	10001.55
618.235	8973.94
618.572	8116.79
618.908	8795.15
619.245	9783.19
619.581	10310.45
619.918	9152.98
620.254	6775.23
620.59	6227.12
620.926	7343.94
621.262	8544.71
621.599	8718.96
621.935	8634.71
622.271	9419.15
622.606	9938.1
622.942	9578.33
623.278	8702.69
623.614	9447.92
623.95	9892.03
624.285	9503.9
624.621	8433.15
624.957	7780.8
625.292	7495.76
625.628	6908.45
625.963	6706.59
626.299	7179.86
626.634	7478.53
626.969	7348.13
627.304	6202.27
627.64	5200.87
627.975	5339.48
628.31	6039.77
628.645	6670.8
628.98	6306.14
629.315	6041.62
629.65	5910.42
629.985	6035.53
630.319	5531.43
630.654	5225.46
630.989	5350.16
631.323	5228.93
631.658	4836.64
631.993	4401.89
632.327	4359.26
632.662	4484.11
632.996	4684.88
633.33	4802.02
633.665	4557.91
633.999	4173.95
634.333	4205.04
634.667	4199.37
635.001	4420.49
635.335	4711.23
635.669	5185.64
636.003	5101.93
636.337	4637.83
636.671	4148.53
637.005	3809.98
637.339	3849.9
637.672	4144.74
638.006	4528.02
638.339	4388.13
638.673	4122.28
639.006	3824.1
639.34	3795.58
639.673	3692.29
640.007	3708.07
640.34	3647.67
640.673	3551.82
641.006	3519.4
641.34	3392.55
641.673	3219.56
642.006	3130.6
642.339	3247.19
642.672	3333.84
643.004	3246.1
643.337	3102.11
643.67	2994.09
644.003	3106.5
644.336	3174.41
644.668	3105.67
645.001	3032.76
645.333	2918.33
645.666	2771.55
645.998	2604.64
646.331	2563.83
646.663	2627.8
646.995	2933.71
647.327	3492.95
647.66	4005.31
647.992	4154.75
648.324	4155.56
648.656	4006.39
648.988	3714.59
649.32	3225.31
649.652	2894.44
649.983	2685.39
650.315	2728.89
650.647	2855.42
650.979	3161.82
651.31	3446.86
651.642	3675.7
651.973	3634.07
652.305	3669.44
652.636	3573.35
652.967	3353.23
653.299	3193.02
653.63	3168.66
653.961	3607.66
654.292	5383.77
654.623	34975.09
654.955	68870.39
655.286	68870.39
655.616	68870.39
655.947	68870.39
656.278	68509.34
656.609	26928.96
656.94	14086.36
657.27	9815.21
657.601	7910.17
657.932	6296.36
658.262	4952.5
658.593	3810.52
658.923	3003.69
659.254	2661.7
659.584	2372.14
659.914	2260.61
660.244	2162.5
660.575	2238.45
660.905	2257.84
661.235	2293
661.565	2358.31
661.895	2381.26
662.225	2319.57
662.555	2288.57
662.884	2255.07
663.214	2384.86
663.544	2507.8
663.873	2508.36
664.203	2532.65
664.533	2689.24
664.862	2768.8
665.192	2625.32
665.521	2361.35
665.85	2173.32
666.18	1991.48
666.509	2006.77
666.838	2110.07
667.167	2190.78
667.496	2166.94
667.825	2127.83
668.154	2140.31
668.483	2177.75
668.812	2232.63
669.141	2329.81
669.47	2381.82
669.798	2346.41
670.127	2257.84
670.456	2426.6
670.784	3130.05
671.113	3795.86
671.441	4257.74
671.77	4119.04
672.098	3698.82
672.426	2955.4
672.755	2503.39
673.083	2475.77
673.411	2481.3
673.739	2471.08
674.067	2241.22
674.395	2231.8
674.723	2364.39
675.051	2489.58
675.379	2485.72
675.706	2412.5
676.034	2327.05
676.362	2212.96
676.689	2508.63
677.017	2977.08
677.344	3264.42
677.672	3208.07
677.999	2988.05
678.327	3084.85
678.654	3406.75
678.981	3690.66
679.308	3647.13
679.636	3338.48
679.963	2986.13
680.29	2789.16
680.617	2977.35
680.944	3184.26
681.271	3077.18
681.597	2652.33
681.924	2285.53
682.251	2239
682.578	2510.01
682.904	2947.71
683.231	3301.05
683.557	3385.73
683.884	3535.75
684.21	3775.48
684.536	4036.19
684.863	4162.05
685.189	4021.02
685.515	3618.55
685.841	3272.35
686.167	3206.98
686.493	3434.04
686.819	3383
687.145	3171.67
687.471	2676.02
687.797	2460.58
688.123	2495.38
688.448	2669.69
688.774	2924.65
689.1	2863.39
689.425	2571.27
689.751	2464.17
690.076	2749.81
690.402	3172.49
690.727	3474.14
691.052	3364.43
691.377	3045.1
691.703	2926.3
692.028	2846.35
692.353	3050.04
692.678	2991.07
693.003	2862.02
693.328	2388.45
693.652	2113.4
693.977	2238.17
694.302	2518.57
694.627	2733.02
694.951	2527.4
695.276	2125.33
695.6	1952.29
695.925	2449.53
696.249	3349.68
696.574	3881.38
696.898	3612.56
697.222	3056.62
697.546	2775.68
697.871	2640.75
698.195	2606.57
698.519	2514.71
698.843	2386.24
699.167	2209.35
699.491	2058.72
699.814	1989.26
700.138	2021.22
700.462	2021.22
700.786	1996.77
701.109	2138.93
701.433	2321.79
701.756	2482.95
702.08	2499.52
702.403	2452.85
702.726	2173.59
703.05	2057.61
703.373	1998.71
703.696	2015.94
704.019	1902.77
704.342	1773.54
704.665	1617.84
704.988	1591.86
705.311	1807.54
705.634	2245.93
705.957	2861.47
706.28	3352.14
706.602	3493.5
706.925	3304.33
707.247	2979.55
707.57	2691.17
707.892	2494.83
708.215	2340.33
708.537	2142.53
708.859	2096.19
709.182	2166.66
709.504	2345.31
709.826	2425.49
710.148	2424.94
710.47	2295.22
710.792	2080.93
711.114	1991.21
711.436	1828.71
711.758	1896.65
712.079	1983.42
712.401	2217.39
712.723	2384.03
713.044	2679.88
713.366	2775.68
713.687	2730.54
714.009	2550.86
714.33	2436.27
714.652	2267.81
714.973	2150.58
715.294	1917.52
715.615	1722.24
715.936	1634.88
716.257	1646.88
716.578	1651.63
716.899	1731.72
717.22	1957.85
717.541	2088.42
717.862	2128.66
718.182	2075.65
718.503	2209.08
718.824	2128.94
719.144	2073.71
719.465	1946.72
719.785	1968.41
720.105	2099.53
720.426	2176.92
720.746	2136.43
721.066	2019.83
721.386	1998.99
721.706	1878.56
722.026	1859.35
722.346	1751.24
722.666	1859.35
722.986	1961.74
723.306	1912.79
723.626	1850.99
723.946	1823.14
724.265	2026.5
724.585	2300.75
724.904	2342.82
725.224	2304.35
725.543	2290.79
725.863	2260.33
726.182	2103.97
726.501	1982.31
726.82	1969.25
727.14	2133.38
727.459	2265.31
727.778	2295.77
728.097	2270.3
728.416	2208.8
728.734	2437.1
729.053	2528.51
729.372	2529.89
729.691	2599.13
730.009	2955.4
730.328	3112.8
730.647	3167.02
730.965	2911.47
731.283	2669.13
731.602	2508.36
731.92	2613.19
732.238	2793.83
732.557	2903.78
732.875	2968.57
733.193	3336.3
733.511	3602.21
733.829	3473.32
734.147	2979
734.465	2618.7
734.782	2690.07
735.1	2795.48
735.418	2847.72
735.735	2896.36
736.053	2867.51
736.371	2829.86
736.688	2680.7
737.005	2371.03
737.323	2115.34
737.64	2136.15
737.957	2339.22
738.274	2858.44
738.592	3143.47
738.909	2988.33
739.226	2441.8
739.543	2044.83
739.86	1853.5
740.176	1767.41
740.493	1662.24
740.81	1626.78
741.127	1681.5
741.443	1872.99
741.76	2042.05
742.076	2074.82
742.393	1870.76
742.709	1620.35
743.025	1591.3
743.342	1573.13
743.658	1655.54
743.974	1788.04
744.29	1771.87
744.606	1706.89
744.922	1700.48
745.238	1717.77
745.554	1642.42
745.87	1590.74
746.186	1702.99
746.501	1874.1
746.817	1829.55
747.132	1580.12
747.448	1411.13
747.763	1405.8
748.079	1586.27
748.394	1890.8
748.71	2203.26
749.025	2430.74
749.34	2520.5
749.655	2471.91
749.97	2231.8
750.285	2108.41
750.6	2227.36
750.915	2334.52
751.23	2285.53
751.545	2121.45
751.859	1871.88
752.174	1808.94
752.489	2052.33
752.803	2344.48
753.118	2444.56
753.432	2296.88
753.747	2089.81
754.061	2210.74
754.375	2382.37
754.689	2588.65
755.004	2603.26
755.318	2722.84
755.632	2988.33
755.946	3137.72
756.26	3340.94
756.573	3750.48
756.887	3990.4
757.201	3816.77
757.515	3133.61
757.828	2614.02
758.142	2568.79
758.455	3079.92
758.769	3506.58
759.082	3696.92
759.396	3835.78
759.709	3901.46
760.022	3884.64
760.335	3487.77
760.648	2931.51
760.962	2508.08
761.275	2198.82
761.587	2166.66
761.9	2221.27
762.213	2388.45
762.526	2652.05
762.839	2657.56
763.151	2795.48
763.464	3097.18
763.776	3652.84
764.089	3891.69
764.401	3543.11
764.714	3122.11
765.026	2671.06
765.338	2351.95
765.65	2011.49
765.962	1804.76
766.275	1685.97
766.587	1680.1
766.898	1867.14
767.21	2147.8
767.522	2470.8
767.834	2738.8
768.146	2652.6
768.457	2406.15
768.769	2072.32
769.08	2005.66
769.392	2231.24
769.703	2479.36
770.015	2722.84
770.326	2773.48
770.637	2527.4
770.948	2148.91
771.26	1797.79
771.571	1791.1
771.882	1885.52
772.193	1917.79
772.504	1847.93
772.814	1766.85
773.125	1669.22
773.436	1580.12
773.747	1445.29
774.057	1487.28
774.368	1455.93
774.678	1417.01
774.989	1300.12
775.299	1268.13
775.609	1277.95
775.919	1296.75
776.23	1328.73
776.54	1301.24
776.85	1335.74
777.16	1346.11
777.47	1520.29
777.78	1723.91
778.089	1868.54
778.399	1907.22
778.709	1692.38
779.019	1512.18
779.328	1327.6
779.638	1310.78
779.947	1594.65
780.257	1974.25
780.566	2191.06
780.875	2049
781.185	1797.23
781.494	1670.89
781.803	1603.59
782.112	1550.49
782.421	1625.38
782.73	1702.43
783.039	1690.71
783.348	1424.29
783.656	1227.42
783.965	1206.92
784.274	1355.64
784.582	1477.76
784.891	1490.63
785.199	1429.33
785.508	1343.03
785.816	1304.89
786.124	1359.85
786.432	1497.35
786.741	1635.71
787.049	1637.67
787.357	1591.02
787.665	1598.84
787.973	1575.09
788.281	1509.66
788.588	1327.32
788.896	1151.28
789.204	1054.8
789.511	1097.29
789.819	1053.95
790.126	1093.63
790.434	1106.01
790.741	1149.03
791.049	1052.54
791.356	1051.98
791.663	988.62
791.97	989.46
792.277	1049.17
792.584	1168.43
792.891	1444.73
793.198	1685.97
793.505	1727.54
793.812	1624.54
794.119	1481.96
794.425	1451.45
794.732	1301.24
795.038	1069.43
795.345	906.86
795.651	817.11
795.958	838.86
796.264	972.56
796.57	1037.06
796.876	1141.72
797.183	1073.93
797.489	1010.59
797.795	939.58
798.101	994.81
798.406	982.42
798.712	903.48
799.018	866.8
799.324	866.52
799.629	858.05
799.935	834.62
800.24	843.94
800.546	843.37
800.851	814.85
801.157	780.96
801.462	719.61
801.767	748.17
802.072	819.94
802.377	884.3
802.682	887.12
802.987	880.06
803.292	810.34
803.597	798.75
803.902	796.78
804.207	830.67
804.511	817.11
804.816	903.76
805.12	1038.19
805.425	1155.78
805.729	1158.03
806.034	1054.8
806.338	922.38
806.642	875.27
806.946	878.09
807.251	901.22
807.555	934.5
807.859	939.86
808.162	904.61
808.466	851
808.77	783.78
809.074	806.66
809.378	791.13
809.681	738.84
809.985	741.39
810.288	776.15
810.592	757.5
810.895	751.56
811.198	677.18
811.502	660.2
811.805	658.22
812.108	660.49
812.411	728.1
812.714	820.78
813.017	922.94
813.32	894.45
813.623	867.65
813.926	740.54
814.228	670.67
814.531	633.59
814.833	631.04
815.136	640.1
815.438	673.22
815.741	656.24
816.043	689.91
816.345	708.3
816.648	691.33
816.95	672.09
817.252	663.88
817.554	667.84
817.856	630.48
818.158	633.31
818.46	609.52
818.761	616.6
819.063	622.55
819.365	642.09
819.666	708.87
819.968	766.54
820.269	767.39
820.571	734.04
820.872	676.33
821.173	621.98
821.475	607.54
821.776	602.16
822.077	600.46
822.378	615.47
822.679	610.65
822.98	606.69
823.281	592.53
823.581	602.44
823.882	599.61
824.183	593.38
824.483	603.57
824.784	657.66
825.084	657.09
825.385	655.11
825.685	619.15
825.985	599.04
826.286	610.09
826.586	630.2
826.886	620
827.186	609.24
827.486	623.97
827.786	615.19
828.086	580.91
828.386	610.65
828.685	627.08
828.985	602.72
829.285	560.79
829.584	565.32
829.884	567.87
830.183	522.52
830.482	529.89
830.782	539.53
831.081	518.26
831.38	524.78
831.679	529.32
831.978	552.85
832.277	568.16
832.576	567.31
832.875	562.21
833.174	572.41
833.472	546.05
833.771	581.48
834.07	577.79
834.368	527.62
834.667	537.54
834.965	549.73
835.263	557.39
835.562	512.87
835.86	513.72
836.158	503.51
836.456	494.15
836.754	489.05
837.052	482.8
837.35	507.48
837.648	508.34
837.946	492.73
838.243	520.53
838.541	516.56
838.839	541.23
839.136	523.93
839.434	529.89
839.731	520.25
840.028	542.36
840.326	512.02
840.623	510.6
840.92	475.43
841.217	491.32
841.514	469.75
841.811	495.85
842.108	481.67
842.405	489.61
842.701	497.27
842.998	501.24
843.295	496.99
843.591	498.12
843.888	500.39
844.184	480.82
844.481	507.77
844.777	488.19
845.073	485.64
845.369	489.05
845.665	463.22
845.962	483.94
846.258	495.57
846.553	494.72
846.849	460.67
847.145	519.4
847.441	480.82
847.737	503.23
848.032	447.9
848.328	496.14
848.623	474.58
848.919	488.76
849.214	502.66
849.509	494.72
849.805	475.71
850.1	462.37
850.395	488.48
850.69	503.8
850.985	484.22
851.28	481.67
851.575	504.93
851.869	487.06
852.164	506.92
852.459	476.28
852.753	512.31
853.048	522.52
853.342	543.78
853.637	527.9
853.931	500.39
854.225	507.48
854.52	510.32
854.814	517.7
855.108	493.02
855.402	493.87
855.696	490.75
855.99	499.83
856.283	504.65
856.577	493.87
856.871	479.12
857.164	486.78
857.458	487.91
857.751	507.48
858.045	465.49
858.338	501.24
858.632	499.83
858.925	487.34
859.218	484.51
859.511	457.83
859.804	492.73
860.097	497.56
860.39	490.46
860.683	481.95
860.976	469.47
861.268	453.29
861.561	489.05
861.854	455.84
862.146	481.67
862.439	476.28
862.731	454.14
863.023	477.7
863.316	454.42
863.608	475.99
863.9	483.37
864.192	484.79
864.484	480.53
864.776	460.1
865.068	494.15
865.36	476.56
865.651	486.21
865.943	455.84
866.235	460.67
866.526	466.06
866.818	454.42
867.109	466.63
867.4	491.88
867.692	480.53
867.983	471.45
868.274	471.74
868.565	471.17
868.856	469.75
869.147	482.52
869.438	476.28
869.729	486.21
870.02	473.16
870.31	473.44
870.601	445.91
870.892	467.2
871.182	471.74
871.473	472.59
871.763	471.17
872.053	472.87
872.343	469.75
872.634	438.81
872.924	477.7
873.214	486.78
873.504	467.48
873.794	482.8
874.084	471.74
874.373	496.42
874.663	457.83
874.953	454.99
875.242	472.3
875.532	477.98
875.821	472.87
876.111	471.17
876.4	475.99
876.689	462.09
876.978	427.45
877.268	468.62
877.557	451.3
877.846	463.79
878.134	435.97
878.423	435.97
878.712	435.97
