Data from FLMS007011_12-09-45-854.txt Node
Date: Thu Apr 21 12:09:45 MDT 2016
User: lab_user
Spectrometer: FLMS00701
Autoset integration time: false
Trigger mode: 0
Integration Time (sec): 5.000000E-3
Scans to average: 10
Electric dark correction enabled: true
Nonlinearity correction enabled: true
Boxcar width: 0
XAxis mode: Wavelengths
Stop averaging: false
Number of Pixels in Spectrum: 2048
>>>>>Begin Spectral Data<<<<<
178.41	5.79
178.791	5.79
179.172	5.79
179.553	-40.21
179.934	-47.08
180.316	-45.36
180.697	-47.36
181.078	-64.8
181.459	-44.79
181.84	-49.93
182.221	-50.51
182.602	0.65
182.983	40.06
183.364	9.51
183.744	68.33
184.125	71.18
184.506	88.59
184.887	94.01
185.268	141.35
185.648	184.39
186.029	206.33
186.41	185.82
186.791	228.26
187.171	286.33
187.552	386.69
187.932	435.55
188.313	445.48
188.694	455.7
189.074	451.44
189.455	515.85
189.835	537.97
190.216	528.61
190.596	537.4
190.977	558.66
191.357	584.17
191.737	601.45
192.118	588.13
192.498	627.22
192.878	640.25
193.258	659.21
193.639	649.59
194.019	672.8
194.399	665.44
194.779	688.64
195.159	674.49
195.54	690.06
195.92	712.97
196.3	739.27
196.68	735.03
197.06	727.96
197.44	731.07
197.82	737.85
198.2	764.99
198.58	789.86
198.959	776.29
199.339	792.4
199.719	775.73
200.099	780.25
200.479	808.5
200.858	805.11
201.238	839.28
201.618	829.68
201.998	827.99
202.377	853.96
202.757	840.69
203.136	859.32
203.516	877.95
203.896	868.64
204.275	894.88
204.655	901.93
205.034	910.95
205.414	922.8
205.793	916.03
206.172	967.06
206.552	948.74
206.931	987.35
207.31	1010.45
207.69	988.76
208.069	1044.8
208.448	1043.68
208.827	1033.82
209.207	1058.31
209.586	1078.86
209.965	1103.62
210.344	1103.62
210.723	1096.58
211.102	1149.73
211.481	1182.9
211.86	1202.56
212.239	1178.96
212.618	1244.41
212.997	1264.34
213.376	1302.22
213.755	1332.23
214.134	1363.91
214.513	1370.36
214.891	1391.37
215.27	1436.47
215.649	1460.83
216.028	1500.57
216.406	1531.34
216.785	1607.36
217.164	1591.16
217.542	1679.41
217.921	1684.15
218.3	1708.43
218.678	1820.78
219.057	1918.21
219.435	1950.76
219.814	1995.79
220.192	2020.52
220.57	2100.77
220.949	2127.69
221.327	2234.43
221.705	2288.99
222.084	2384.17
222.462	2506.29
222.84	2549.34
223.218	2664.04
223.597	2756.55
223.975	2890.73
224.353	3026.59
224.731	3114.03
225.109	3251.7
225.487	3381.77
225.865	3502.36
226.243	3627.94
226.621	3841.34
226.999	3958.82
227.377	4089.13
227.755	4234.64
228.133	4435.73
228.511	4604.6
228.889	4773.42
229.266	4908.94
229.644	5153.15
230.022	5334.81
230.4	5491.87
230.777	5700.25
231.155	5875.27
231.533	6068.77
231.91	6388.65
232.288	6556.38
232.665	6789.82
233.043	6980.76
233.42	7173.97
233.798	7410.73
234.175	7630.29
234.553	7824.15
234.93	8083.94
235.307	8347.28
235.685	8520.78
236.062	8809.99
236.439	8946.22
236.816	9249.61
237.194	9485.03
237.571	9646.7
237.948	9932.85
238.325	10152.25
238.702	10318.23
239.079	10569.39
239.456	10832.84
239.833	11030.82
240.21	11279.77
240.587	11447.3
240.964	11677.4
241.341	12015.28
241.718	12232.01
242.095	12328.3
242.472	12569.57
242.849	12755.98
243.225	13009.76
243.602	13265.73
243.979	13331.93
244.356	13546.93
244.732	13902.03
245.109	14124.96
245.486	14323.47
245.862	14385.86
246.239	14707.3
246.615	14824.4
246.992	15144.04
247.368	15159.96
247.745	15456.59
248.121	15588.53
248.497	15684.89
248.874	16029.86
249.25	16277.81
249.626	16434.42
250.003	16643.45
250.379	16946.13
250.755	17030.97
251.131	17220.38
251.507	17251.53
251.884	17565.35
252.26	17617.46
252.636	17923.12
253.012	18106.95
253.388	18385.66
253.764	18468.26
254.14	18498.58
254.516	18579.19
254.892	18703.65
255.268	18870.7
255.643	18978.35
256.019	19117.01
256.395	19226.58
256.771	19435.34
257.147	19568.48
257.522	19589.4
257.898	19830.03
258.274	19862.5
258.649	19943.43
259.025	20110.91
259.4	20300.73
259.776	20235.09
260.151	20230.91
260.527	20367.85
260.902	20462.74
261.278	20623.24
261.653	20642.66
262.028	20678.79
262.404	20763.82
262.779	20772.42
263.154	20984.22
263.53	21156.93
263.905	20990.85
264.28	21082.74
264.655	21142.43
265.03	21005.6
265.405	21208.51
265.781	21225.71
266.156	21361.29
266.531	21295.71
266.906	21361.05
267.281	21532.23
267.655	21349.99
268.03	21364.24
268.405	21401.08
268.78	21415.08
269.155	21495.88
269.53	21343.61
269.904	21464.45
270.279	21475.5
270.654	21536.16
271.029	21424.66
271.403	21575.7
271.778	21506.2
272.152	21505.46
272.527	21399.36
272.901	21604.67
273.276	21649.61
273.65	21675.64
274.025	21656.73
274.399	21631.93
274.774	21621.37
275.148	21668.03
275.522	21706.58
275.897	21710.76
276.271	21656.24
276.645	21833.77
277.019	21832.05
277.393	21928.05
277.768	21808.73
278.142	21738.26
278.516	21736.78
278.89	21758.15
279.264	21770.91
279.638	21935.91
280.012	21922.65
280.386	21606.15
280.76	21865.69
281.133	21830.58
281.507	21793.26
281.881	21870.85
282.255	21842.12
282.629	21820.02
283.002	21727.45
283.376	21829.35
283.75	21676.13
284.123	21816.59
284.497	21772.39
284.87	21757.16
285.244	21767.48
285.618	21738.75
285.991	21492.44
286.364	21539.6
286.738	21578.64
287.111	21676.62
287.485	21463.22
287.858	21482.37
288.231	21331.82
288.605	21434.24
288.978	21465.92
289.351	21261.33
289.724	21191.81
290.097	21202.86
290.47	21230.38
290.843	21059.4
291.217	21071.44
291.59	20824.27
291.963	20902.9
292.336	20730.64
292.708	20672.4
293.081	20644.87
293.454	20688.62
293.827	20485.85
294.2	20314.5
294.573	20409.89
294.945	20319.42
295.318	20297.29
295.691	20165.75
296.064	20054.35
296.436	20007.62
296.809	20061.24
297.181	19962.12
297.554	19901.12
297.926	19879.47
298.299	19874.06
298.671	20034.18
299.044	19876.03
299.416	19756.47
299.788	19784.52
300.161	19702.34
300.533	19709.23
300.905	19920.06
301.278	19741.46
301.65	19907.52
302.022	19715.63
302.394	19674.05
302.766	19777.38
303.138	19511.88
303.51	19819.21
303.882	19558.15
304.254	19680.94
304.626	19729.65
304.998	19775.17
305.37	19614.26
305.742	19682.17
306.114	19522.71
306.485	19808.87
306.857	19804.69
307.229	19580.05
307.601	19577.1
307.972	19475.46
308.344	19631.23
308.716	19595.31
309.087	19531.08
309.459	19418.35
309.83	19557.41
310.202	19465.12
310.573	19564.3
310.945	19523.7
311.316	19339.34
311.687	19493.42
312.059	19326.78
312.43	19348.94
312.801	19469.8
313.172	19245.29
313.544	19295.77
313.915	19409.49
314.286	19344.26
314.657	19329.74
315.028	19243.82
315.399	19200.24
315.77	19312.26
316.141	19148.28
316.512	19145.82
316.883	19061.11
317.254	19171.92
317.625	18948.55
317.996	19169.95
318.366	18941.4
318.737	18997.32
319.108	18970.22
319.478	18880.06
319.849	18887.21
320.22	18931.55
320.59	18832.76
320.961	18681.71
321.331	18893.86
321.702	18511.64
322.072	18503.51
322.443	18649.68
322.813	18490.44
323.184	18441.38
323.554	18447.79
323.924	18339.3
324.295	18220.67
324.665	18222.89
325.035	18267.54
325.405	18152.1
325.775	18080.8
326.145	18001.59
326.515	17860.42
326.886	17752.79
327.256	17706.12
327.626	17366.71
327.995	17149.18
328.365	16876.61
328.735	16643.2
329.105	16225.51
329.475	16316.48
329.845	16476.53
330.215	17018.11
330.584	17481.36
330.954	18249.28
331.324	18847.79
331.693	19091.89
332.063	19138.19
332.432	19127.35
332.802	18756.13
333.171	18402.43
333.541	17826.36
333.91	17721.67
334.28	17441.08
334.649	17300.23
335.018	17329.14
335.388	17270.32
335.757	17217.42
336.126	17045.32
336.495	17153.38
336.865	16997.83
337.234	16940.93
337.603	16928.81
337.972	16918.67
338.341	16915.7
338.71	16982.74
339.079	16831.08
339.448	16936.48
339.817	16810.54
340.186	16719.2
340.554	16747.42
340.923	16749.9
341.292	16514.93
341.661	16515.67
342.029	16648.65
342.398	16581.05
342.767	16402.96
343.135	16502.79
343.504	16360.09
343.872	16523.59
344.241	16454.49
344.609	16308.54
344.978	16347.95
345.346	16409.89
345.715	16292.43
346.083	16179.89
346.451	16314.24
346.82	16169.98
347.188	16340.02
347.556	16101.54
347.924	16102.53
348.292	15931.37
348.66	15989.93
349.028	16010.51
349.396	15838.31
349.764	16026.64
350.132	15770.8
350.5	15836.33
350.868	15881
351.236	15740.01
351.604	15616.1
351.972	15774.27
352.34	15595.48
352.707	15549.52
353.075	15595.98
353.443	15412.85
353.81	15363.88
354.178	15381.53
354.545	15379.54
354.913	15446.65
355.28	15339.27
355.648	15341.26
356.015	15337.28
356.383	15321.37
356.75	15196.03
357.117	15123.64
357.485	15134.08
357.852	15137.82
358.219	15222.89
358.586	15031.81
358.954	15020.61
359.321	15020.36
359.688	14971.82
360.055	14892.89
360.422	14940.2
360.789	14834.61
361.156	14699.07
361.523	14843.82
361.89	14771.08
362.256	14856.78
362.623	14708.04
362.99	14640
363.357	14554.99
363.724	14599.37
364.09	14568.45
364.457	14480.17
364.823	14554.49
365.19	14525.31
365.557	14544.76
365.923	14457.22
366.29	14439.01
366.656	14476.92
367.022	14565.21
367.389	14412.81
367.755	14298.26
368.121	14346.68
368.488	14259.57
368.854	14215.37
369.22	14126.21
369.586	14068
369.952	13874.52
370.318	13715.91
370.684	13824
371.051	13763.71
371.416	13688.89
371.782	13645.58
372.148	13643.33
372.514	13533.9
372.88	13545.92
373.246	13491.57
373.612	13630.81
373.977	13513.86
374.343	13659.6
374.709	13723.17
375.074	13673.87
375.44	13502.59
375.806	13509.85
376.171	13471.78
376.537	13467.77
376.902	13432.19
377.268	13550.68
377.633	13610.78
377.998	13690.14
378.364	13821
378.729	13785.73
379.094	13794.48
379.459	13374.04
379.825	13505.1
380.19	13336.19
380.555	13139.54
380.92	12929.89
381.285	12944.46
381.65	13036.63
382.015	13032.86
382.38	12978.37
382.745	12788.91
383.11	12801.98
383.474	12762.26
383.839	12733.85
384.204	12605.31
384.569	12589.2
384.933	12459.55
385.298	12498.58
385.663	12534.33
386.027	12576.37
386.392	12634.24
386.756	12748.69
387.121	12781.87
387.485	12846.22
387.849	13091.86
388.214	12898.74
388.578	12651.1
388.942	12479.95
389.307	12474.41
389.671	12328.05
390.035	12504.37
390.399	12499.09
390.763	12611.6
391.127	12689.84
391.492	13005.24
391.856	13348.22
392.219	13597.01
392.583	13619.04
392.947	13202.52
393.311	12732.84
393.675	12585.93
394.039	12498.83
394.403	12522.75
394.766	12356.78
395.13	12295.54
395.494	12248.65
395.857	12344.18
396.221	12412.96
396.584	12644.31
396.948	12770.56
397.311	13185.71
397.675	13505.6
398.038	13525.13
398.401	13192.99
398.765	12767.54
399.128	12350.48
399.491	12157.35
399.854	11971.6
400.218	11971.6
400.581	11958.21
400.944	11836.69
401.307	11604.79
401.67	11588.59
402.033	11569.36
402.396	11472.89
402.759	11450.34
403.122	11559.99
403.485	11635.66
403.847	11693.85
404.21	11847.56
404.573	11945.33
404.936	12046.58
405.298	11777.8
405.661	11520.49
406.023	11269.63
406.386	11076.78
406.749	10907.08
407.111	10922.07
407.473	11154.96
407.836	11327.95
408.198	11490.87
408.561	11402.97
408.923	11391.56
409.285	11358.37
409.647	11244.02
410.009	11018.37
410.372	10980.27
410.734	10767.46
411.096	10827.24
411.458	10848.09
411.82	10930.72
412.182	11059.51
412.544	11091.51
412.906	11164.86
413.267	11159.79
413.629	10906.31
413.991	10791.12
414.353	10815.03
414.714	10595.37
415.076	10554.36
415.438	10633.07
415.799	10649.87
416.161	10491.92
416.522	10412.88
416.884	10333.03
417.245	10331.5
417.607	10291.18
417.968	10235.52
418.329	10396.56
418.691	10354.72
419.052	10402.68
419.413	10471.53
419.774	10546.46
420.135	10945.96
420.497	11268.36
420.858	11678.16
421.219	11782.6
421.58	11570.62
421.941	11264.56
422.302	10847.59
422.662	10783.24
423.023	10557.67
423.384	10480.45
423.745	10532.19
424.106	10603.78
424.466	10675.84
424.827	10436.09
425.187	10194.15
425.548	9994.26
425.909	9794.85
426.269	9923.13
426.63	9977.89
426.99	10200.79
427.35	10211.26
427.711	10149.44
428.071	10340.94
428.431	10615.24
428.792	11366.22
429.152	12080.15
429.512	12393.81
429.872	12300.58
430.232	11979.93
430.592	11450.09
430.952	10749.91
431.312	10291.94
431.672	9785.62
432.032	9790.49
432.392	9992.72
432.752	10752.96
433.111	11503.53
433.471	11617.19
433.831	10795.19
434.19	10442.97
434.55	10441.44
434.91	10218.67
435.269	10377.94
435.629	10507.47
435.988	10578.31
436.348	10524.55
436.707	10143.82
437.066	9992.72
437.426	10091.43
437.785	10206.41
438.144	10334.05
438.503	10163.24
438.862	10065.1
439.222	9901.37
439.581	9714.13
439.94	9807.66
440.299	10455.47
440.658	11097.09
441.017	11357.86
441.376	11255.18
441.734	10934.27
442.093	10831.56
442.452	10859.79
442.811	11067.89
443.169	11073.73
443.528	10760.09
443.887	10568.88
444.245	10584.42
444.604	10417.73
444.962	10223.52
445.321	10097.05
445.679	10252.37
446.038	10342.48
446.396	10181.89
446.754	9905.21
447.112	9800.74
447.471	9682.85
447.829	9608.22
448.187	9563.84
448.545	9656.44
448.903	9589.5
449.261	9559.73
449.619	9448.82
449.977	9360.95
450.335	9172.16
450.693	9083.33
451.051	9073.8
451.409	9030.77
451.766	9056.02
452.124	8856.97
452.482	8766.62
452.839	8465.65
453.197	8334.06
453.555	8283.25
453.912	8265.1
454.27	8459.95
454.627	8719.61
454.984	8806.12
455.342	8682.92
455.699	8392.36
456.056	8324.21
456.414	8525.95
456.771	8753.96
457.128	8895.15
457.485	8959.37
457.842	8986.44
458.199	8936.94
458.556	9067.62
458.913	9076.63
459.27	9143.33
459.627	8993.14
459.984	8994.43
460.341	9081.78
460.697	8924.56
461.054	8565.02
461.411	8130.68
461.767	7819.21
462.124	7783.27
462.481	7954.51
462.837	8194.28
463.194	8625.53
463.55	8469.01
463.907	8848.97
464.263	9153.63
464.619	9485.03
464.976	9818.93
465.332	9962.28
465.688	9599.24
466.044	8886.9
466.4	8502.92
466.756	8319.02
467.112	8280.91
467.468	8327.06
467.824	8238.9
468.18	8042.63
468.536	7976.35
468.892	7787.18
469.248	7622.2
469.604	7557.5
469.959	7522.53
470.315	7533.49
470.671	7548.89
471.026	7600.29
471.382	7739.25
471.737	7950.87
472.093	8064.45
472.448	8296.99
472.804	8602.52
473.159	8755
473.514	8785.98
473.87	8859.55
474.225	9272.76
474.58	9735.66
474.935	9843.26
475.29	9588.98
475.645	9480.15
476	9374.06
476.355	9295.65
476.71	9151.83
477.065	9529.45
477.42	9915.19
477.775	10044.39
478.13	9893.18
478.485	9956.4
478.839	10053.85
479.194	10568.63
479.549	10928.43
479.903	11058.5
480.258	10749.65
480.612	10918.26
480.967	11431.09
481.321	11669.56
481.675	11273.18
482.03	10856.23
482.384	10628.48
482.738	10708.17
483.093	10869.45
483.447	11257.2
483.801	11830.12
484.155	12358.79
484.509	13635.32
484.863	28110.49
485.217	40327.69
485.571	44519.76
485.925	31994.98
486.279	21308.98
486.632	16363.56
486.986	14079.99
487.34	12431.85
487.694	11503.28
488.047	11106.23
488.401	11137.45
488.754	11070.69
489.108	10769.5
489.461	10614.73
489.815	10362.12
490.168	10563.28
490.522	10663.11
490.875	10714.53
491.228	10515.88
491.581	10650.38
491.935	10633.83
492.288	10520.72
492.641	10685.52
492.994	10562
493.347	10798.5
493.7	10884.96
494.053	10808.17
494.406	10713.01
494.759	10197.47
495.111	10458.53
495.464	11235.9
495.817	12119.76
496.169	11866.26
496.522	10969.34
496.875	10059.73
497.227	9788.7
497.58	9650.8
497.932	9859.39
498.285	10035.95
498.637	10445.27
498.989	10778.66
499.342	10791.38
499.694	10513.08
500.046	10119.03
500.398	10362.38
500.751	10788.83
501.103	10780.95
501.455	10880.39
501.807	10781.46
502.159	10805.11
502.511	10740.49
502.862	10774.84
503.214	10506.71
503.566	10141.78
503.918	9780.76
504.27	9785.11
504.621	9849.91
504.973	9710.8
505.324	9715.41
505.676	10041.83
506.027	10182.65
506.379	9656.7
506.73	9118.87
507.082	9209.99
507.433	9505.57
507.784	9822.25
508.136	9593.34
508.487	9401.04
508.838	9110.11
509.189	9118.35
509.54	9237.01
509.891	9215.91
510.242	9126.59
510.593	9131.23
510.944	8924.56
511.295	8719.61
511.646	8510.17
511.996	8407.12
512.347	8629.41
512.698	8698.68
513.049	8584.16
513.399	8445.45
513.75	8464.09
514.1	8300.1
514.451	7950.09
514.801	7811.92
515.152	7904.83
515.502	8193.24
515.852	8448.04
516.202	8431.21
516.553	8360.23
516.903	8013.26
517.253	7796.82
517.603	7654.8
517.953	7759.31
518.303	8008.33
518.653	8258.09
519.003	8234.49
519.353	7792.13
519.703	7380.94
520.052	7173.97
520.402	7213.77
520.752	7464.55
521.102	7399.5
521.451	7277.63
521.801	7223.72
522.15	7282.87
522.5	7517.3
522.849	7400.28
523.199	7562.72
523.548	7683.74
523.897	7668.62
524.246	7466.64
524.596	7216.65
524.945	7182.87
525.294	7193.61
525.643	7335.44
525.992	7241
526.341	7397.67
526.69	7275.8
527.039	7153.01
527.388	7006.21
527.737	7256.7
528.086	7808.01
528.434	8266.13
528.783	8171.18
529.132	7706.68
529.48	7481.01
529.829	7323.94
530.177	7238.9
530.526	7178.16
530.874	7264.55
531.223	7231.84
531.571	7241.78
531.919	7202.51
532.268	7534.53
532.616	8104.97
532.964	8524.66
533.312	8607.95
533.66	8497.23
534.008	8536.05
534.356	8536.56
534.704	8428.36
535.052	8252.39
535.4	7906.91
535.748	7485.45
536.095	7183.4
536.443	7009.36
536.791	7162.44
537.139	7576.03
537.486	7994.03
537.834	8202.06
538.181	8212.7
538.529	8168.32
538.876	8157.94
539.223	8068.09
539.571	7649.07
539.918	7676.96
540.265	7829.36
540.613	8199.72
540.96	8072.51
541.307	8034.32
541.654	7922.26
542.001	7987.79
542.348	7931.1
542.695	7916.8
543.042	8137.17
543.388	8329.91
543.735	8386.92
544.082	8424.22
544.429	8414.64
544.775	8137.95
545.122	7719.97
545.469	7334.92
545.815	7296.47
546.162	7382.25
546.508	7734.82
546.854	8197.39
547.201	8866.77
547.547	9275.59
547.893	8959.11
548.24	8221.26
548.586	7371
548.932	7024.83
549.278	6888.88
549.624	7094.05
549.97	7097.99
550.316	6829.25
550.662	6604.58
551.008	6905.16
551.353	7939.69
551.699	8485.58
552.045	8393.91
552.391	7849.93
552.736	7652.19
553.082	7692.34
553.427	7499.81
553.773	7018.54
554.118	6834.77
554.464	7082.52
554.809	7693.39
555.154	8128.86
555.5	8181.82
555.845	7744.98
556.19	7186.54
556.535	6848.95
556.88	6922.23
557.225	7089.34
557.57	6983.65
557.915	6599.32
558.26	6309.18
558.605	6323.44
558.95	6407.13
559.295	7098.25
559.639	7792.91
559.984	8468.5
560.329	8674.13
560.673	8728.39
561.018	8248.76
561.362	7820.51
561.707	7358.19
562.051	7362.38
562.395	7498.77
562.74	7961.53
563.084	8134.06
563.428	8540.7
563.772	8572.26
564.117	8548.72
564.461	8678.27
564.805	8506.29
565.149	8573.04
565.493	8567.61
565.836	8807.67
566.18	9047.26
566.524	10122.1
566.868	11027.01
567.212	11550.12
567.555	11647.05
567.899	12510.92
568.242	13677.37
568.586	15380.04
568.929	17614.75
569.273	20082.14
569.616	20572.61
569.96	20897
570.303	22194.67
570.646	23030.64
570.989	24112.53
571.333	24272.51
571.676	22923.15
572.019	19439.77
572.362	20016.23
572.705	23572.46
573.048	27027.54
573.391	29084.47
573.733	30038.39
574.076	30838.12
574.419	29827.59
574.762	26628.31
575.104	23447.81
575.447	22138.94
575.789	25022.88
576.132	29228.29
576.474	29726.5
576.817	34230.01
577.159	39529.81
577.501	41349.76
577.844	36281.55
578.186	28170.2
578.528	24155.72
578.87	24059.04
579.212	25362.75
579.554	28226.95
579.896	27891.1
580.238	29813.81
580.58	39476.74
580.922	46697.34
581.264	50864.65
581.606	43656.64
581.947	37500.02
582.289	29999.03
582.631	23664.97
582.972	20150.01
583.314	20282.29
583.655	21782.95
583.997	25675.9
584.338	30714.57
584.679	34137.48
585.021	33947.25
585.362	29108.31
585.703	24774.3
586.044	22695.4
586.385	25627.8
586.726	28910.42
587.067	28429.19
587.408	24888.41
587.749	22485.79
588.09	20450.45
588.431	18632.18
588.772	16532.02
589.113	16947.86
589.453	17534.72
589.794	16892.19
590.134	15203.99
590.475	14118.97
590.815	14051.76
591.156	14453.23
591.496	14604.6
591.837	19201.47
592.177	24268.83
592.517	28115.65
592.857	25726.46
593.198	22546.42
593.538	18388.37
593.878	16290.2
594.218	17012.92
594.558	18942.88
594.898	18730.75
595.237	16916.94
595.577	14503.86
595.917	12845.47
596.257	13537.66
596.596	14393.35
596.936	15649.38
597.276	14499.37
597.615	14408.57
597.955	17748.83
598.294	21674.17
598.633	22294.82
598.973	20414.31
599.312	19724.24
599.651	19887.59
599.991	19000.27
600.33	18432.75
600.669	17403.77
601.008	16377.19
601.347	15027.58
601.686	15664.03
602.025	15777.5
602.364	17087.11
602.702	18023.8
603.041	18189.84
603.38	16689
603.719	15143.54
604.057	13839.01
604.396	13864.77
604.734	14657.2
605.073	17912.01
605.411	18073.64
605.75	17327.17
606.088	14914.55
606.426	15208.96
606.764	15942.79
607.103	15559.96
607.441	14112.47
607.779	13424.17
608.117	13445.47
608.455	12863.81
608.793	11943.31
609.131	13471.78
609.469	14902.35
609.806	14978.29
610.144	12728.07
610.482	11958.46
610.819	12226.46
611.157	12051.88
611.495	11432.1
611.832	11158.01
612.17	11197.59
612.507	11595.17
612.844	11409.3
613.182	11290.93
613.519	11471.62
613.856	11534.93
614.193	11557.96
614.53	12217.38
614.867	12540.88
615.205	11541
615.541	10600.72
615.878	9407.98
616.215	9649.01
616.552	9595.14
616.889	9875.01
617.226	10318.49
617.562	9962.02
617.899	8892.32
618.235	7843.68
618.572	7086.19
618.908	7460.11
619.245	8333.02
619.581	8907.54
619.918	8011.19
620.254	6146.32
620.59	5422.04
620.926	6183.62
621.262	7207.75
621.599	7549.15
621.935	7382.77
622.271	7990.65
622.606	8484.03
622.942	8297.77
623.278	7601.08
623.614	7980.25
623.95	8494.12
624.285	8225.93
624.621	7458.55
624.957	6827.41
625.292	6484.15
625.628	6115.36
625.963	5923.28
626.299	6116.42
626.634	6425.6
626.969	6367.01
627.304	5567.24
627.64	4703.3
627.975	4651.95
628.31	5096.71
628.645	5735.86
628.98	5546.2
629.315	5334.81
629.65	5110.35
629.985	5145.13
630.319	4849.39
630.654	4632.58
630.989	4650.33
631.323	4549.69
631.658	4319.45
631.993	3863.06
632.327	3786.48
632.662	3872.02
632.996	4012.49
633.33	4164.08
633.665	4024.68
633.999	3697.87
634.333	3645.36
634.667	3624.67
635.001	3829.13
635.335	4070.72
635.669	4442.74
636.003	4455.41
636.337	4082.09
636.671	3645.9
637.005	3377.4
637.339	3387.5
637.672	3609.7
638.006	3890.47
638.339	3845.42
638.673	3625.76
639.006	3392.69
639.34	3290.53
639.673	3258.81
640.007	3295.17
640.34	3219.15
640.673	3032.35
641.006	3023.58
641.34	2993.95
641.673	2851.98
642.006	2713.06
642.339	2791.22
642.672	2842.36
643.004	2828.89
643.337	2738.94
643.67	2665.97
644.003	2706.18
644.336	2703.98
644.668	2721.87
645.001	2704.8
645.333	2566.45
645.666	2443.04
645.998	2372.55
646.331	2255.21
646.663	2278.47
646.995	2533.34
647.327	2989.56
647.66	3484.64
647.992	3582.74
648.324	3660.33
648.656	3541.06
648.988	3309.93
649.32	2913.53
649.652	2582.17
649.983	2409.05
650.315	2438.9
650.647	2469.56
650.979	2730.13
651.31	3004.1
651.642	3145.8
651.973	3204.93
652.305	3187.41
652.636	3165.51
652.967	2967.06
653.299	2838.24
653.63	2784.89
653.961	3120.06
654.292	4397.71
654.623	23899.79
654.955	68925.56
655.286	68925.56
655.616	68925.56
655.947	68925.56
656.278	68925.56
656.609	28497.01
656.94	14361.41
657.27	9388.96
657.601	7258.27
657.932	5628.71
658.262	4274.09
658.593	3310.48
658.923	2670.65
659.254	2359.55
659.584	2130.47
659.914	1998.57
660.244	1911.26
660.575	1967.72
660.905	1968.83
661.235	2035.25
661.565	2106.32
661.895	2120.75
662.225	2063.3
662.555	2000.24
662.884	2006.07
663.214	2060.52
663.544	2156.26
663.873	2213.65
664.203	2266.84
664.533	2340.19
664.862	2401.31
665.192	2323.59
665.521	2122.42
665.85	1971.33
666.18	1789.01
666.509	1793.75
666.838	1838.32
667.167	1938.8
667.496	1916.26
667.825	1855.03
668.154	1854.2
668.483	1919.6
668.812	1994.4
669.141	2036.64
669.47	2115.48
669.798	2071.35
670.127	1997.18
670.456	2127.97
670.784	2642.82
671.113	3181.12
671.441	3638.56
671.77	3590.1
672.098	3299.27
672.426	2737.29
672.755	2312.52
673.083	2203.12
673.411	2216.42
673.739	2165.14
674.067	1989.68
674.395	2014.13
674.723	2050.8
675.051	2176.78
675.379	2164.58
675.706	2162.92
676.034	2033.86
676.362	2019.69
676.689	2144.34
677.017	2578.58
677.344	2787.64
677.672	2811.57
677.999	2634.55
678.327	2662.94
678.654	2968.43
678.981	3165.79
679.308	3212.31
679.636	2972.55
679.963	2675.33
680.29	2515.12
680.617	2640.62
680.944	2742.52
681.271	2751.6
681.597	2386.93
681.924	2121.31
682.251	1953.54
682.578	2211.15
682.904	2530.3
683.231	2802.22
683.557	2928.9
683.884	3054.29
684.21	3215.05
684.536	3465.82
684.863	3587.37
685.189	3483
685.515	3239.94
685.841	2924.24
686.167	2793.14
686.493	2987.92
686.819	3008.22
687.145	2767.29
687.471	2445.53
687.797	2165.97
688.123	2152.38
688.448	2311.96
688.774	2508.49
689.1	2507.67
689.425	2318.88
689.751	2159.31
690.076	2309.75
690.402	2762.06
690.727	3010.69
691.052	2976.39
691.377	2702.05
691.703	2604.23
692.028	2496.35
692.353	2622.15
692.678	2607.81
693.003	2542.17
693.328	2179.28
693.652	1935.18
693.977	1927.39
694.302	2159.03
694.627	2372.28
694.951	2281.51
695.276	1930.17
695.6	1699.78
695.925	2088.01
696.249	2795.35
696.574	3239.94
696.898	3176.74
697.222	2734.26
697.546	2519.26
697.871	2311.69
698.195	2308.37
698.519	2253.82
698.843	2167.35
699.167	1970.78
699.491	1839.99
699.814	1783.44
700.138	1821.61
700.462	1774.24
700.786	1781.21
701.109	1845.84
701.433	1987.18
701.756	2173.45
702.08	2180.66
702.403	2144.06
702.726	1962.71
703.05	1831.64
703.373	1773.12
703.696	1750.26
704.019	1711.22
704.342	1634.18
704.665	1498.05
704.988	1458.31
705.311	1627.2
705.634	1923.5
705.957	2436.69
706.28	2841.81
706.602	3006.3
706.925	2882.49
707.247	2663.21
707.57	2425.36
707.892	2237.75
708.215	2092.73
708.537	1902.63
708.859	1870.34
709.182	1894.28
709.504	2034.41
709.826	2137.68
710.148	2130.19
710.47	2039.69
710.792	1883.71
711.114	1757.51
711.436	1679.41
711.758	1669.08
712.079	1766.71
712.401	1944.92
712.723	2069.41
713.044	2308.09
713.366	2422.59
713.687	2403.8
714.009	2292.59
714.33	2173.18
714.652	2015.24
714.973	1946.03
715.294	1733.81
715.615	1561.81
715.936	1500.85
716.257	1428.35
716.578	1464.19
716.899	1521.27
717.22	1701.45
717.541	1860.88
717.862	1872.29
718.182	1857.26
718.503	1885.65
718.824	1894.56
719.144	1875.36
719.465	1718.19
719.785	1718.47
720.105	1797.93
720.426	1894.28
720.746	1829.69
721.066	1822.73
721.386	1770.62
721.706	1682.2
722.026	1623.29
722.346	1600.66
722.666	1615.47
722.986	1669.36
723.306	1713.73
723.626	1657.91
723.946	1604.85
724.265	1766.16
724.585	1976.06
724.904	2076.9
725.224	2114.93
725.543	2062.19
725.863	2020.8
726.182	1876.47
726.501	1765.6
726.82	1744.69
727.14	1831.64
727.459	1992.46
727.778	1986.62
728.097	1991.62
728.416	2021.36
728.734	2124.92
729.053	2204.78
729.372	2208.11
729.691	2263.51
730.009	2520.09
730.328	2670.1
730.647	2739.77
730.965	2579.13
731.283	2340.19
731.602	2247.17
731.92	2267.39
732.238	2399.93
732.557	2524.23
732.875	2575
733.193	2849.24
733.511	3114.3
733.829	3021.66
734.147	2656.87
734.465	2391.91
734.782	2344.89
735.1	2447.18
735.418	2518.16
735.735	2514.84
736.053	2497.18
736.371	2474.26
736.688	2367.3
737.005	2104.1
737.323	1920.72
737.64	1846.96
737.957	2047.47
738.274	2421.21
738.592	2645.58
738.909	2587.13
739.226	2204.5
739.543	1819.94
739.86	1630.55
740.176	1572.16
740.493	1483.78
740.81	1455.23
741.127	1531.62
741.443	1640.6
741.76	1756.12
742.076	1806.01
742.393	1665.17
742.709	1495.25
743.025	1431.43
743.342	1428.63
743.658	1484.34
743.974	1536.93
744.29	1554.54
744.606	1540.56
744.922	1517.35
745.238	1487.42
745.554	1455.51
745.87	1405.94
746.186	1492.45
746.501	1636.41
746.817	1613.79
747.132	1439.55
747.448	1282.58
747.763	1275
748.079	1370.92
748.394	1597.03
748.71	1863.11
749.025	2058.85
749.34	2195.08
749.655	2154.04
749.97	2007.19
750.285	1878.42
750.6	1930.45
750.915	2089.95
751.23	2059.69
751.545	1901.52
751.859	1734.09
752.174	1596.75
752.489	1768.11
752.803	2028.02
753.118	2149.05
753.432	2053.3
753.747	1880.92
754.061	1918.21
754.375	2039.14
754.689	2221.68
755.004	2295.08
755.318	2364.81
755.632	2472.87
755.946	2713.89
756.26	2871.5
756.573	3210.95
756.887	3396.51
757.201	3304.74
757.515	2781.87
757.828	2355.68
758.142	2282.07
758.455	2605.33
758.769	2970.9
759.082	3183.85
759.396	3290.8
759.709	3357.19
760.022	3321.13
760.335	3114.03
760.648	2613.33
760.962	2212.54
761.275	1991.07
761.587	1928.23
761.9	1951.87
762.213	2048.3
762.526	2263.79
762.839	2344.89
763.151	2376.7
763.464	2673.96
763.776	3080.88
764.089	3368.39
764.401	3142.24
764.714	2758.48
765.026	2422.59
765.338	2121.03
765.65	1811.86
765.962	1627.48
766.275	1524.34
766.587	1475.66
766.898	1600.1
767.21	1804.34
767.522	2135.46
767.834	2371.45
768.146	2312.52
768.457	2186.76
768.769	1874.24
769.08	1800.99
769.392	1933.23
769.703	2137.68
770.015	2341.02
770.326	2432.26
770.637	2217.53
770.948	1923.78
771.26	1656.24
771.571	1598.98
771.882	1679.13
772.193	1713.73
772.504	1682.48
772.814	1565.45
773.125	1484.9
773.436	1393.06
773.747	1361.11
774.057	1300.82
774.368	1279.21
774.678	1251.43
774.989	1175.31
775.299	1151.98
775.609	1128.65
775.919	1174.19
776.23	1214.92
776.54	1189.36
776.85	1201.44
777.16	1211.83
777.47	1326.34
777.78	1486.58
778.089	1624.68
778.399	1623.29
778.709	1532.45
779.019	1382.97
779.328	1208.74
779.638	1205.37
779.947	1375.96
780.257	1667.96
780.566	1852.25
780.875	1770.06
781.185	1621.33
781.494	1505.88
781.803	1470.07
782.112	1398.38
782.421	1447.67
782.73	1515.67
783.039	1519.59
783.348	1355.5
783.656	1157.6
783.965	1123.3
784.274	1188.8
784.582	1280.06
784.891	1321.86
785.199	1281.74
785.508	1227
785.816	1197.23
786.124	1194.98
786.432	1356.34
786.741	1434.23
787.049	1467.55
787.357	1463.35
787.665	1455.23
787.973	1419.11
788.281	1371.48
788.588	1218.58
788.896	1078.3
789.204	1022.28
789.511	1018.05
789.819	1003.97
790.126	996.65
790.434	987.07
790.741	1040.02
791.049	1012.14
791.356	945.64
791.663	915.47
791.97	933.51
792.277	956.63
792.584	996.36
792.891	1245.81
793.198	1497.49
793.505	1562.93
793.812	1464.75
794.119	1382.97
794.425	1296.89
794.732	1212.68
795.038	1033.54
795.345	879.08
795.651	814.15
795.958	768.66
796.264	844.93
796.57	954.09
796.876	1007.91
797.183	1031.29
797.489	899.95
797.795	872.59
798.101	914.9
798.406	906.16
798.712	864.12
799.018	855.09
799.324	823.47
799.629	816.41
799.935	846.9
800.24	805.96
800.546	773.75
800.851	783.36
801.157	774.03
801.462	707.59
801.767	697.69
802.072	774.88
802.377	819.51
802.682	828.55
802.987	812.17
803.292	778.55
803.597	741.25
803.902	735.87
804.207	751.42
804.511	761.03
804.816	842.67
805.12	949.58
805.425	1018.9
805.729	1099.96
806.034	1004.53
806.338	897.98
806.642	850.01
806.946	837.87
807.251	851.7
807.555	854.52
807.859	874.28
808.162	874
808.466	824.6
808.77	752.84
809.074	737.85
809.378	753.97
809.681	731.07
809.985	734.18
810.288	739.83
810.592	759.34
810.895	701.65
811.198	648.46
811.502	615.04
811.805	613.35
812.108	637.7
812.411	694.02
812.714	766.4
813.017	846.05
813.32	822.34
813.623	790.7
813.926	722.58
814.228	708.44
814.531	647.04
814.833	600.03
815.136	611.08
815.438	642.79
815.741	633.17
816.043	683.55
816.345	710.99
816.648	687.23
816.95	675.06
817.252	660.91
817.554	667.99
817.856	621.56
818.158	613.35
818.46	588.98
818.761	586.72
819.063	626.66
819.365	606.26
819.666	660.63
819.968	729.37
820.269	709.01
820.571	712.12
820.872	673.65
821.173	634.87
821.475	624.39
821.776	613.35
822.077	592.67
822.378	607.96
822.679	591.25
822.98	552.43
823.281	558.1
823.581	583.32
823.882	597.77
824.183	592.38
824.483	617.59
824.784	596.92
825.084	665.16
825.385	611.93
825.685	611.36
825.985	573.4
826.286	624.96
826.586	604
826.886	630.62
827.186	630.9
827.486	568.87
827.786	569.72
828.086	574.25
828.386	612.5
828.685	628.92
828.985	586.72
829.285	571.42
829.584	566.88
829.884	525.49
830.183	543.07
830.482	533.43
830.782	531.45
831.081	494.01
831.38	500.25
831.679	536.55
831.978	536.84
832.277	555.26
832.576	584.45
832.875	567.45
833.174	539.67
833.472	579.92
833.771	568.87
834.07	549.31
834.368	541.66
834.667	552.14
834.965	539.1
835.263	547.33
835.562	514.72
835.86	523.51
836.158	512.73
836.456	506.21
836.754	498.83
837.052	493.73
837.35	502.52
837.648	514.43
837.946	512.16
838.243	532.3
838.541	516.14
838.839	505.07
839.136	518.97
839.434	519.25
839.731	538.25
840.028	526.63
840.326	512.16
840.623	510.18
840.92	511.6
841.217	483.23
841.514	517.55
841.811	497.13
842.108	503.94
842.405	524.64
842.701	488.62
842.998	501.1
843.295	477.55
843.591	493.44
843.888	505.92
844.184	496.28
844.481	504.22
844.777	507.63
845.073	494.86
845.369	483.23
845.665	496.28
845.962	481.53
846.258	493.44
846.553	511.03
846.849	479.26
847.145	511.6
847.441	474.15
847.737	477.27
848.032	519.82
848.328	488.34
848.623	475.85
848.919	488.34
849.214	497.13
849.509	446.05
849.805	480.68
850.1	494.01
850.395	473.58
850.69	505.07
850.985	508.48
851.28	488.62
851.575	490.61
851.869	513.02
852.164	542.51
852.459	515.57
852.753	527.2
853.048	526.63
853.342	528.33
853.637	542.51
853.931	518.12
854.225	520.67
854.52	542.22
854.814	519.82
855.108	532.58
855.402	516.7
855.696	511.6
855.99	516.14
856.283	517.84
856.577	480.96
856.871	498.55
857.164	515.85
857.458	522.94
857.751	520.67
858.045	509.33
858.338	490.32
858.632	485.22
858.925	497.13
859.218	520.96
859.511	477.84
859.804	479.82
860.097	472.16
860.39	479.54
860.683	464.5
860.976	490.61
861.268	477.84
861.561	507.91
861.854	483.51
862.146	500.25
862.439	498.27
862.731	509.61
863.023	483.51
863.316	479.54
863.608	479.26
863.9	477.84
864.192	505.07
864.484	462.23
864.776	455.42
865.068	484.36
865.36	497.98
865.651	492.02
865.943	477.27
866.235	469.61
866.526	480.68
866.818	479.54
867.109	472.73
867.4	500.25
867.692	480.68
867.983	522.37
868.274	461.66
868.565	494.01
868.856	468.76
869.147	478.41
869.438	476.99
869.729	495.43
870.02	487.2
870.31	473.3
870.601	475.57
870.892	473.3
871.182	495.71
871.473	494.58
871.763	485.78
872.053	439.52
872.343	497.98
872.634	469.89
872.924	490.32
873.214	461.95
873.504	482.66
873.794	460.53
874.084	478.41
874.373	505.92
874.663	477.84
874.953	487.77
875.242	477.55
875.532	471.31
875.821	471.03
876.111	481.24
876.4	486.63
876.689	485.5
876.978	493.73
877.268	476.99
877.557	483.23
877.846	481.53
878.134	471.6
878.423	471.6
878.712	471.6
