Data from FLMS007011_12-10-37-571.txt Node
Date: Thu Apr 21 12:10:37 MDT 2016
User: lab_user
Spectrometer: FLMS00701
Autoset integration time: false
Trigger mode: 0
Integration Time (sec): 5.000000E-3
Scans to average: 10
Electric dark correction enabled: true
Nonlinearity correction enabled: true
Boxcar width: 0
XAxis mode: Wavelengths
Stop averaging: false
Number of Pixels in Spectrum: 2048
>>>>>Begin Spectral Data<<<<<
178.41	34.62
178.791	34.62
179.172	34.62
179.553	-41.66
179.934	-61.67
180.316	-67.68
180.697	-56.81
181.078	-45.38
181.459	-35.94
181.84	-67.96
182.221	-19.94
182.602	-15.65
182.983	2.06
183.364	40.62
183.744	40.91
184.125	56.61
184.506	80.01
184.887	88.29
185.268	145.33
185.648	173.26
186.029	178.96
186.41	219.98
186.791	243.05
187.171	289.44
187.552	410.54
187.932	410.26
188.313	450.29
188.694	486.05
189.074	501.65
189.455	521.51
189.835	544.19
190.216	574.23
190.596	553.26
190.977	570.27
191.357	603.7
191.737	617.58
192.118	615.31
192.498	651.84
192.878	670.23
193.258	683.82
193.639	683.53
194.019	684.67
194.399	704.75
194.779	715.5
195.159	747.45
195.54	763
195.92	744.9
196.3	766.95
196.68	765.26
197.06	763.56
197.44	769.78
197.82	770.63
198.2	790.97
198.58	808.77
198.959	826.28
199.339	825.15
199.719	813.29
200.099	844.06
200.479	854.79
200.858	875.96
201.238	849.43
201.618	864.1
201.998	875.39
202.377	880.75
202.757	888.94
203.136	895.99
203.516	947.03
203.896	950.98
204.275	948.16
204.655	959.15
205.034	997.76
205.414	1018.6
205.793	1010.15
206.172	1013.25
206.552	1024.51
206.931	1072.09
207.31	1046.48
207.69	1086.44
208.069	1074.34
208.448	1118.51
208.827	1148.88
209.207	1179.51
209.586	1153.37
209.965	1197.21
210.344	1251.97
210.723	1230.92
211.102	1269.38
211.481	1284.81
211.86	1324.64
212.239	1330.53
212.618	1356.61
212.997	1381.83
213.376	1417.97
213.755	1462.77
214.134	1478.73
214.513	1495.52
214.891	1556.49
215.27	1587.51
215.649	1642.26
216.028	1641.7
216.406	1666.27
216.785	1723.75
217.164	1799.59
217.542	1840.81
217.921	1895.94
218.3	1935.44
218.678	1979.38
219.057	2099.37
219.435	2115.74
219.814	2193.4
220.192	2245.77
220.57	2303.92
220.949	2390.23
221.327	2514
221.705	2574.71
222.084	2673.66
222.462	2752.14
222.84	2867.36
223.218	3018.35
223.597	3114.29
223.975	3207.37
224.353	3364.82
224.731	3508.07
225.109	3677.45
225.487	3772.07
225.865	3968.57
226.243	4139.72
226.621	4293.25
226.999	4462.13
227.377	4649.51
227.755	4814.22
228.133	4988.52
228.511	5156.34
228.889	5430.56
229.266	5566.42
229.644	5811.28
230.022	6089.14
230.4	6266.1
230.777	6441.15
231.155	6649.07
231.533	7005.67
231.91	7234.44
232.288	7389.55
232.665	7680.86
233.043	7939.41
233.42	8209.57
233.798	8482.2
234.175	8775.64
234.553	8943.37
234.93	9200.46
235.307	9448.81
235.685	9737.18
236.062	9999.1
236.439	10215.84
236.816	10538.04
237.194	10774.32
237.571	10988.89
237.948	11251.86
238.325	11532.89
238.702	11789.67
239.079	12070.04
239.456	12289.72
239.833	12548.16
240.21	12898.22
240.587	13050.42
240.964	13414.88
241.341	13726.41
241.718	13881.26
242.095	14049.24
242.472	14280.03
242.849	14545.99
243.225	14844.56
243.602	15112.67
243.979	15226.11
244.356	15568.39
244.732	15730.81
245.109	16112.19
245.486	16197.24
245.862	16434.16
246.239	16810.27
246.615	16933.74
246.992	17225.31
247.368	17265.85
247.745	17637.45
248.121	17888.05
248.497	17954.2
248.874	18296.87
249.25	18527.9
249.626	18785.69
250.003	18932.27
250.379	19257.59
250.755	19456.49
251.131	19631.47
251.507	19723.98
251.884	20089.26
252.26	20216.14
252.636	20430.77
253.012	20688.11
253.388	20857.92
253.764	21070.2
254.14	21023.52
254.516	21301.59
254.892	21330.09
255.268	21616.2
255.643	21708.29
256.019	21744.38
256.395	21986.47
256.771	22086.15
257.147	22333.84
257.522	22314.2
257.898	22541.01
258.274	22602.86
258.649	22779.08
259.025	22902.77
259.4	22997.01
259.776	23105.72
260.151	23214.92
260.527	23354.06
260.902	23486.32
261.278	23597.72
261.653	23467.92
262.028	23516.26
262.404	23789.36
262.779	23789.12
263.154	23977.56
263.53	24093.62
263.905	23978.55
264.28	24055.84
264.655	24071.3
265.03	24009.22
265.405	24228.09
265.781	24348.32
266.156	24234.47
266.531	24339.24
266.906	24350.04
267.281	24585.59
267.655	24246
268.03	24292.86
268.405	24394.69
268.78	24467.08
269.155	24516.15
269.53	24375.55
269.904	24503.15
270.279	24500.69
270.654	24536.27
271.029	24444.99
271.403	24576.27
271.778	24521.31
272.152	24518.36
272.527	24433.22
272.901	24606.45
273.276	24736.5
273.65	24707.3
274.025	24753.68
274.399	24663.62
274.774	24758.09
275.148	24799.32
275.522	24755.64
275.897	24683.25
276.271	24591.73
276.645	24959.06
277.019	24970.6
277.393	25109.24
277.768	24799.56
278.142	24969.61
278.516	24848.89
278.89	24962.74
279.264	24850.36
279.638	25044.46
280.012	25082
280.386	24816.99
280.76	24952.44
281.133	24983.36
281.507	24901.89
281.881	24985.81
282.255	24941.39
282.629	24778.22
283.002	24758.09
283.376	24973.79
283.75	24797.85
284.123	24906.3
284.497	24758.83
284.87	24875.88
285.244	24878.33
285.618	24844.47
285.991	24504.62
286.364	24583.14
286.738	24638.35
287.111	24806.68
287.485	24544.86
287.858	24580.93
288.231	24486.95
288.605	24405.98
288.978	24528.42
289.351	24218.03
289.724	24244.04
290.097	24268.57
290.47	24063.2
290.843	24081.6
291.217	23926.53
291.59	23757.22
291.963	23852.42
292.336	23690.97
292.708	23614.41
293.081	23515.77
293.454	23690.48
293.827	23470.37
294.2	23265.23
294.573	23275.04
294.945	23077.01
295.318	23140.08
295.691	23098.11
296.064	23002.9
296.436	22846.57
296.809	22946.94
297.181	22802.15
297.554	22691.21
297.926	22694.16
298.299	22613.41
298.671	22810.25
299.044	22688.76
299.416	22564.08
299.788	22603.1
300.161	22526.77
300.533	22595
300.905	22657.34
301.278	22707.41
301.65	22674.52
302.022	22549.11
302.394	22334.09
302.766	22487.25
303.138	22409.69
303.51	22471.79
303.882	22510.82
304.254	22458.53
304.626	22486.52
304.998	22582.73
305.37	22313.22
305.742	22398.4
306.114	22459.03
306.485	22590.83
306.857	22523.58
307.229	22416.81
307.601	22369.43
307.972	22418.77
308.344	22246.94
308.716	22333.35
309.087	22337.52
309.459	22268.54
309.83	22268.54
310.202	22306.1
310.573	22280.08
310.945	22169.62
311.316	22095.72
311.687	22305.61
312.059	22145.31
312.43	22177.96
312.801	22019.13
313.172	22143.1
313.544	21955.29
313.915	22174.03
314.286	22033.86
314.657	22115.61
315.028	21955.78
315.399	21981.32
315.77	22038.77
316.141	21863.71
316.512	21977.39
316.883	21805.77
317.254	21856.35
317.625	21574.7
317.996	21814.36
318.366	21750.52
318.737	21705.09
319.108	21665.31
319.478	21517.97
319.849	21523.62
320.22	21488.5
320.59	21531.72
320.961	21473.77
321.331	21510.11
321.702	21191.8
322.072	21162.32
322.443	21163.79
322.813	21147.09
323.184	21088.13
323.554	20955.22
323.924	20981.5
324.295	20855.21
324.665	20643.14
325.035	20849.81
325.405	20691.8
325.775	20612.17
326.145	20552.94
326.515	20410.86
326.886	20226.96
327.256	20109.91
327.626	19839.36
327.995	19645.49
328.365	19288.86
328.735	18975.63
329.105	18479.09
329.475	18586.81
329.845	18745.03
330.215	19335.63
330.584	20081.14
330.954	20835.8
331.324	21547.2
331.693	21928.53
332.063	21908.64
332.432	21873.29
332.802	21427.84
333.171	21034.82
333.541	20388.73
333.91	20089.01
334.28	19947.35
334.649	19994.33
335.018	19775.89
335.388	19858.31
335.757	19740.22
336.126	19487.75
336.495	19704.05
336.865	19514.58
337.234	19294.27
337.603	19309.54
337.972	19371.08
338.341	19392
338.71	19317.91
339.079	19146.54
339.448	19378.96
339.817	19236.91
340.186	19198.75
340.554	19121.43
340.923	19091.63
341.292	18936.22
341.661	18988.19
342.029	18921.93
342.398	18865.76
342.767	18808.11
343.135	18941.39
343.504	18742.57
343.872	18820.18
344.241	18764.99
344.609	18711.77
344.978	18677.26
345.346	18781.99
345.715	18582.13
346.083	18479.58
346.451	18685.64
346.82	18502.02
347.188	18552.3
347.556	18435.7
347.924	18400.69
348.292	18306.24
348.66	18319.07
349.028	18232.25
349.396	18164.67
349.764	18070.67
350.132	18098.8
350.5	18129.64
350.868	18134.32
351.236	17994.67
351.604	17847.32
351.972	18016.39
352.34	17723.39
352.707	17741.41
353.075	17768.33
353.443	17685.61
353.81	17652.77
354.178	17614.24
354.545	17648.57
354.913	17572.99
355.28	17441.07
355.648	17520.38
356.015	17420.32
356.383	17468.5
356.75	17276.98
357.117	17336.79
357.485	17383.99
357.852	17268.08
358.219	17277.47
358.586	17304.91
358.954	17215.43
359.321	17187.24
359.688	17120.48
360.055	16962.69
360.422	17052.48
360.789	16942.65
361.156	16957.49
361.523	16789.24
361.89	16873.87
362.256	16856.8
362.623	16774.14
362.99	16697.16
363.357	16770.43
363.724	16765.97
364.09	16696.91
364.457	16626.35
364.823	16714.49
365.19	16591.44
365.557	16684.04
365.923	16630.07
366.29	16388.82
366.656	16555.28
367.022	16647.15
367.389	16561.97
367.755	16410.62
368.121	16295.15
368.488	16336.53
368.854	16228.47
369.22	16075.24
369.586	16043.24
369.952	15875.53
370.318	15774.01
370.684	15727.34
371.051	15657.06
371.416	15572.86
371.782	15614.1
372.148	15624.53
372.514	15545.29
372.88	15435.46
373.246	15435.95
373.612	15545.53
373.977	15584.29
374.343	15659.55
374.709	15751.92
375.074	15485.41
375.44	15492.36
375.806	15334.53
376.171	15439.18
376.537	15403.14
376.902	15347.71
377.268	15584.29
377.633	15509.26
377.998	15547.52
378.364	15829.37
378.729	15757.13
379.094	15860.14
379.459	15376.3
379.825	15290.77
380.19	15309.92
380.555	15005.41
380.92	14803.71
381.285	14743.91
381.65	14858.51
382.015	14987.98
382.38	14844.81
382.745	14730.96
383.11	14549.73
383.474	14571.43
383.839	14550.73
384.204	14575.67
384.569	14330.95
384.933	14435.75
385.298	14225.35
385.663	14292.01
386.027	14340.18
386.392	14456.7
386.756	14641.98
387.121	14681.61
387.485	14774.56
387.849	14914.79
388.214	14666.16
388.578	14545.99
388.942	14273.04
389.307	14286.27
389.671	14126.45
390.035	14263.3
390.399	14236.08
390.763	14490.88
391.127	14543
391.492	14961.1
391.856	15209.45
392.219	15559.2
392.583	15545.29
392.947	15088.04
393.311	14562.2
393.675	14451.97
394.039	14257.56
394.403	14233.59
394.766	14186.14
395.13	14095.22
395.494	13921.27
395.857	14141.68
396.221	14216.36
396.584	14360.89
396.948	14655.44
397.311	15034.78
397.675	15340.25
398.038	15466.52
398.401	15105.46
398.765	14601.1
399.128	14210.62
399.491	13876.01
399.854	13735.67
400.218	13742.18
400.581	13685.62
400.944	13515.6
401.307	13259.95
401.67	13270.98
402.033	13121.46
402.396	13145.3
402.759	13119.7
403.122	13190.21
403.485	13207.27
403.847	13390.82
404.21	13536.89
404.573	13689.37
404.936	13728.66
405.298	13573.46
405.661	13135.01
406.023	12888.68
406.386	12671.21
406.749	12519.47
407.111	12491.02
407.473	12695.61
407.836	12968.06
408.198	13098.87
408.561	13115.69
408.923	13025.82
409.285	12931.39
409.647	12787.14
410.009	12577.61
410.372	12545.14
410.734	12366.34
411.096	12382.21
411.458	12407.65
411.82	12508.89
412.182	12733.33
412.544	12748.67
412.906	12715.23
413.267	12740.62
413.629	12548.92
413.991	12373.14
414.353	12403.12
414.714	12145.48
415.076	12152.55
415.438	12082.4
415.799	12211.82
416.161	11999.36
416.522	11855.89
416.884	11806.86
417.245	11873.83
417.607	11837.69
417.968	11659.94
418.329	11850.33
418.691	11850.83
419.052	11896.31
419.413	11977.14
419.774	11994.31
420.135	12479.68
420.497	12946.96
420.858	13429.92
421.219	13466.75
421.58	13259.44
421.941	12813.28
422.302	12397.58
422.662	12236.28
423.023	12026.37
423.384	11955.92
423.745	12095.53
424.106	12177.27
424.466	12222.16
424.827	12032.68
425.187	11754.02
425.548	11418.66
425.909	11170.43
426.269	11332.24
426.63	11469.33
426.99	11669.04
427.35	11627.3
427.711	11650.07
428.071	11764.64
428.431	12138.92
428.792	13022.05
429.152	13845
429.512	14178.15
429.872	14004.26
430.232	13727.91
430.592	13104.64
430.952	12301.57
431.312	11676.63
431.672	11183.37
432.032	11127.54
432.392	11383.44
432.752	12242.83
433.111	13105.9
433.471	13093.1
433.831	12300.31
434.19	12027.63
434.55	11979.66
434.91	11759.84
435.269	11892.52
435.629	11955.92
435.988	12099.31
436.348	11897.07
436.707	11570.1
437.066	11405.74
437.426	11583.77
437.785	11739.35
438.144	11753.77
438.503	11618.19
438.862	11504.53
439.222	11315.51
439.581	11157.74
439.94	11293.96
440.299	11961.48
440.658	12663.92
441.017	12939.17
441.376	12841.68
441.734	12477.92
442.093	12246.11
442.452	12386.49
442.811	12629.2
443.169	12592.96
443.528	12296.53
443.887	12110.41
444.245	12123.53
444.604	11887.72
444.962	11681.19
445.321	11600.73
445.679	11696.87
446.038	11928.39
446.396	11712.3
446.754	11361.9
447.112	11245.02
447.471	11162.82
447.829	10919.01
448.187	10943.92
448.545	11045.79
448.903	10969.07
449.261	10939.09
449.619	10813.75
449.977	10729.54
450.335	10483.75
450.693	10417.97
451.051	10343.99
451.409	10355.22
451.766	10413.89
452.124	10119.78
452.482	9890.86
452.839	9652.33
453.197	9477.83
453.555	9483.99
453.912	9515.57
454.27	9685.15
454.627	9951.01
454.984	10055.11
455.342	9964.31
455.699	9592.82
456.056	9567.41
456.414	9689.25
456.771	9978.64
457.128	10094.74
457.485	10309.8
457.842	10263.59
458.199	10147.89
458.556	10362.11
458.913	10339.4
459.27	10447.8
459.627	10283.51
459.984	10261.04
460.341	10385.32
460.697	10138.44
461.054	9782.28
461.411	9374.04
461.767	8986.43
462.124	8868.05
462.481	9133.53
462.837	9334.72
463.194	9828.39
463.55	9708.48
463.907	10094.99
464.263	10317.2
464.619	10914.18
464.976	11251.61
465.332	11382.17
465.688	11030.8
466.044	10157.35
466.4	9797.91
466.756	9521.99
467.112	9513.77
467.468	9602.82
467.824	9449.06
468.18	9185.79
468.536	9046.99
468.892	8895.4
469.248	8823.66
469.604	8699.96
469.959	8618.54
470.315	8687.04
470.671	8585.18
471.026	8701.77
471.382	8867.53
471.737	9087.69
472.093	9328.03
472.448	9546.37
472.804	9851.18
473.159	10009.59
473.514	10046.16
473.87	10141.25
474.225	10532.18
474.58	11150.89
474.935	11207.98
475.29	11009.97
475.645	10750.4
476	10694.41
476.355	10572.18
476.71	10536.76
477.065	10892.07
477.42	11357.08
477.775	11503.26
478.13	11335.79
478.485	11461.22
478.839	11489.59
479.194	12058.17
479.549	12526.51
479.903	12686.81
480.258	12425.03
480.612	12485.73
480.967	13086.32
481.321	13308.85
481.675	12886.41
482.03	12479.18
482.384	12143.46
482.738	12278.88
483.093	12465.33
483.447	12864.3
483.801	13583.47
484.155	14121.2
484.509	15707.47
484.863	32430.34
485.217	46520.4
485.571	51178.15
485.925	36908.53
486.279	24405.74
486.632	18696.24
486.986	16129.55
487.34	14194.63
487.694	13221.82
488.047	12806.24
488.401	12849.73
488.754	12735.09
489.108	12379.94
489.461	12293.76
489.815	11934.96
490.168	12054.39
490.522	12153.81
490.875	12248.38
491.228	12038.99
491.581	12123.28
491.935	12183.82
492.288	12063.73
492.641	12220.39
492.994	12139.68
493.347	12414.96
493.7	12502.85
494.053	12518.21
494.406	12238.8
494.759	11665.25
495.111	11996.83
495.464	12981.37
495.817	13879.26
496.169	13608.51
496.522	12593.72
496.875	11570.61
497.227	11192.76
497.58	11048.07
497.932	11378.88
498.285	11474.64
498.637	11907.43
498.989	12392.54
499.342	12391.53
499.694	11950.87
500.046	11584.28
500.398	11850.07
500.751	12251.41
501.103	12433.35
501.455	12399.59
501.807	12371.63
502.159	12365.83
502.511	12430.83
502.862	12361.55
503.214	12052.12
503.566	11634.13
503.918	11193.27
504.27	11251.86
504.621	11301.31
504.973	11161.04
505.324	11093.27
505.676	11425
506.027	11670.31
506.379	11156.73
506.73	10521.73
507.082	10536.51
507.433	10879.61
507.784	11261.76
508.136	10978.73
508.487	10817.31
508.838	10445
509.189	10378.94
509.54	10624.4
509.891	10550.78
510.242	10555.36
510.593	10392.21
510.944	10226.31
511.295	9977.36
511.646	9727.7
511.996	9683.61
512.347	9740.26
512.698	9939.24
513.049	9788.68
513.399	9713.6
513.75	9733.08
514.1	9526.86
514.451	9132.24
514.801	9018.64
515.152	9148.21
515.502	9428
515.852	9614.62
516.202	9705.14
516.553	9622.32
516.903	9146.41
517.253	8899.52
517.603	8818.24
517.953	8817.98
518.303	9202.77
518.653	9513
519.003	9500.68
519.353	8874.5
519.703	8430.42
520.052	8216.58
520.402	8298.01
520.752	8576.13
521.102	8485.57
521.451	8264.56
521.801	8269.23
522.15	8368.77
522.5	8558.02
522.849	8574.32
523.199	8720.37
523.548	8860.31
523.897	8841.21
524.246	8543.28
524.596	8245.63
524.945	8210.61
525.294	8265.08
525.643	8389.75
525.992	8357.37
526.341	8482.2
526.69	8360.22
527.039	8225.91
527.388	8022.61
527.737	8323.42
528.086	9022
528.434	9586.66
528.783	9342.94
529.132	8865.21
529.48	8626.04
529.829	8438.71
530.177	8354.26
530.526	8200.49
530.874	8275.45
531.223	8309.94
531.571	8310.71
531.919	8326.79
532.268	8655.25
532.616	9346.8
532.964	9809.95
533.312	9847.34
533.66	9780.23
534.008	9748.97
534.356	9786.38
534.704	9651.3
535.052	9423.63
535.4	9040.29
535.748	8638.45
536.095	8206.2
536.443	7967.76
536.791	8198.93
537.139	8690.91
537.486	9139.97
537.834	9409.76
538.181	9464.47
538.529	9408.22
538.876	9383.3
539.223	9223.87
539.571	8816.95
539.918	8730.19
540.265	8954.72
540.613	9378.16
540.96	9327.01
541.307	9148.72
541.654	9131.47
542.001	9198.4
542.348	9115.25
542.695	9095.42
543.042	9341.92
543.388	9528.92
543.735	9639.25
544.082	9715.14
544.429	9716.42
544.775	9322.89
545.122	8869.34
545.469	8358.14
545.815	8328.86
546.162	8536.55
546.508	8849.21
546.854	9461.65
547.201	10167.06
547.547	10595.87
547.893	10294.48
548.24	9398.2
548.586	8453.98
548.932	8134.3
549.278	7945.65
549.624	8151.18
549.97	8089.38
550.316	7734.02
550.662	7552.01
551.008	8028.84
551.353	9066.57
551.699	9820.19
552.045	9576.91
552.391	8893.33
552.736	8764.54
553.082	8675.15
553.427	8592.42
553.773	8100.29
554.118	7809.82
554.464	8145.21
554.809	8827.53
555.154	9379.44
555.5	9378.16
555.845	8821.85
556.19	8281.16
556.535	7779.87
556.88	7917.3
557.225	8103.4
557.57	7896.23
557.915	7542.87
558.26	7220.56
558.605	7258.52
558.95	7448.61
559.295	8230.58
559.639	9035.65
559.984	9766.39
560.329	9980.69
560.673	9966.1
561.018	9490.67
561.362	8951.88
561.707	8361.25
562.051	8547.16
562.395	8626.55
562.74	9186.3
563.084	9429.8
563.428	9828.39
563.772	9820.96
564.117	9795.86
564.461	9969.43
564.805	9781
565.149	9872.17
565.493	9847.59
565.836	10102.66
566.18	10366.19
566.524	11679.16
566.868	12743.14
567.212	13307.34
567.555	13411.37
567.899	14494.62
568.242	15949.47
568.586	17820.42
568.929	20505.5
569.273	23235.54
569.616	23853.65
569.96	24200.85
570.303	25663.13
570.646	26728.22
570.989	28038
571.333	28136.52
571.676	26554.64
572.019	22305.12
572.362	23077.5
572.705	27249.28
573.048	31452.12
573.391	33438.61
573.733	34743.86
574.076	35651.91
574.419	34527.38
574.762	30656.22
575.104	26965.65
575.447	25450.1
575.789	28969.89
576.132	34017.3
576.474	34597.24
576.817	39820.3
577.159	45848.6
577.501	47941.94
577.844	42007.83
578.186	32269.18
578.528	27765.31
578.87	27791.84
579.212	29279.17
579.554	32735.2
579.896	32261.54
580.238	34369.18
580.58	45810.87
580.922	53779.35
581.264	58246.93
581.606	50281.81
581.947	43162.41
582.289	34497.27
582.631	27157.19
582.972	23083.14
583.314	23506.93
583.655	25041.02
583.997	29839.13
584.338	35787.05
584.679	39631.5
585.021	39401.33
585.362	33242.81
585.703	28370.2
586.044	26095.6
586.385	29592.2
586.726	33319.5
587.067	32965.69
587.408	28671
587.749	25719.82
588.09	23523.37
588.431	21376.51
588.772	19079.07
589.113	19452.55
589.453	20159.34
589.794	19420.56
590.134	17426.74
590.475	16222.27
590.815	16304.07
591.156	16654.58
591.496	16802.11
591.837	22348.81
592.177	28120.06
592.517	32516.1
592.857	29802.73
593.198	25936.3
593.538	21008.78
593.878	18758.09
594.218	19498.82
594.558	22118.31
594.898	21715.41
595.237	19474.46
595.577	16662.25
595.917	14773.06
596.257	15660.04
596.596	16616.2
596.936	18158.01
597.276	16723.4
597.615	16607.29
597.955	20438.64
598.294	25029.98
598.633	25695.77
598.973	23582.76
599.312	22744.96
599.651	23018.6
599.991	21949.89
600.33	21210.46
600.669	20031.71
601.008	18989.17
601.347	17235.45
601.686	18007.01
602.025	18182.92
602.364	19772.7
602.702	20805.58
603.041	20915.9
603.38	19283.69
603.719	17442.8
604.057	15935.08
604.396	15882.72
604.734	16877.83
605.073	20686.39
605.411	20872.9
605.75	19813.04
606.088	17258.44
606.426	17578.42
606.764	18377.76
607.103	18008.74
607.441	16388.57
607.779	15316.13
608.117	15613.6
608.455	14767.33
608.793	13733.42
609.131	15624.78
609.469	17190.95
609.806	17355.08
610.144	14745.16
610.482	13696.38
610.819	14109.21
611.157	13977.27
611.495	13190.71
611.832	12787.89
612.17	12885.16
612.507	13406.86
612.844	13171.14
613.182	13055.44
613.519	13184.69
613.856	13356.23
614.193	13312.61
614.53	14111.96
614.867	14608.08
615.205	13283.52
615.541	12249.39
615.878	10841.47
616.215	11054.42
616.552	10980.51
616.889	11419.68
617.226	11983.45
617.562	11477.94
617.899	10123.36
618.235	8993.39
618.572	8107.82
618.908	8644.39
619.245	9561.51
619.581	10169.61
619.918	9292.04
620.254	7017.21
620.59	6181.76
620.926	7124.7
621.262	8347.26
621.599	8698.92
621.935	8519.73
622.271	9202.52
622.606	9771.01
622.942	9591.79
623.278	8689.88
623.614	9243.68
623.95	9713.09
624.285	9450.35
624.621	8525.68
624.957	7845.75
625.292	7453.57
625.628	7062.06
625.963	6779.55
626.299	7089.85
626.634	7422.22
626.969	7327.58
627.304	6370.43
627.64	5320.65
627.975	5321.45
628.31	5846.86
628.645	6620.9
628.98	6324.75
629.315	6088.61
629.65	5895.15
629.985	5933.08
630.319	5527.55
630.654	5216.76
630.989	5359.35
631.323	5211.68
631.658	4945.38
631.993	4419.81
632.327	4278.93
632.662	4358.3
632.996	4541.33
633.33	4685
633.665	4530.56
633.999	4231.65
634.333	4167.31
634.667	4120.51
635.001	4325.11
635.335	4628.8
635.669	5087.86
636.003	5119.7
636.337	4689.04
636.671	4111.04
637.005	3836.17
637.339	3783.48
637.672	4108.6
638.006	4438.41
638.339	4395.53
638.673	4119.16
639.006	3829.11
639.34	3795.7
639.673	3697.58
640.007	3725.05
640.34	3586.27
640.673	3535.6
641.006	3437.43
641.34	3387.49
641.673	3248.13
642.006	3073.73
642.339	3189.04
642.672	3279.58
643.004	3245.67
643.337	3119.22
643.67	2971.44
644.003	3083.88
644.336	3137.3
644.668	3069.9
645.001	3044.13
645.333	2957.17
645.666	2799.18
645.998	2633.99
646.331	2553.74
646.663	2598.97
646.995	2826.4
647.327	3386.12
647.66	3958.81
647.992	4105.9
648.324	4149.46
648.656	4051.75
648.988	3762.56
649.32	3300.08
649.652	2913.24
649.983	2726.54
650.315	2725.16
650.647	2780.48
650.979	3047.97
651.31	3356.63
651.642	3643.17
651.973	3641.26
652.305	3655.96
652.636	3565.57
652.967	3320.85
653.299	3179.73
653.63	3105.25
653.961	3557.39
654.292	5043.7
654.623	28219.81
654.955	68920.64
655.286	68920.64
655.616	68920.64
655.947	68920.64
656.278	68920.64
656.609	31443.26
656.94	15574.85
657.27	10239.59
657.601	8088.34
657.932	6455.66
658.262	5017.19
658.593	3935.22
658.923	3111.55
659.254	2676.69
659.584	2460.43
659.914	2263.22
660.244	2166.23
660.575	2163.46
660.905	2261.01
661.235	2316.93
661.565	2381.11
661.895	2360.09
662.225	2320.8
662.555	2247.43
662.884	2214.19
663.214	2356.22
663.544	2461.26
663.873	2465.68
664.203	2578.02
664.533	2609.45
664.862	2741.13
665.192	2637.57
665.521	2352.07
665.85	2175.66
666.18	2013.84
666.509	1988.83
666.838	2106.86
667.167	2189.24
667.496	2168.45
667.825	2139.6
668.154	2127.68
668.483	2147.09
668.812	2265.16
669.141	2292.3
669.47	2380.83
669.798	2371.71
670.127	2259.34
670.456	2401.85
670.784	3002.44
671.113	3602.61
671.441	4144.32
671.77	4112.93
672.098	3792.45
672.426	3117.3
672.755	2549.33
673.083	2436.39
673.411	2500.2
673.739	2449.38
674.067	2272.36
674.395	2238.02
674.723	2274.85
675.051	2451.04
675.379	2427.27
675.706	2406.55
676.034	2305.86
676.362	2234.69
676.689	2420.64
677.017	2871.76
677.344	3178.91
677.672	3190.68
677.999	2989
678.327	3030.69
678.654	3364.28
678.981	3590.35
679.308	3607.78
679.636	3349.53
679.963	3026.58
680.29	2816.51
680.617	2965.95
680.944	3070.72
681.271	3062.22
681.597	2659.61
681.924	2340.17
682.251	2238.02
682.578	2500.75
682.904	2881.92
683.231	3145.51
683.557	3351.44
683.884	3505.07
684.21	3717.16
684.536	3957.45
684.863	4112.66
685.189	4002.45
685.515	3657.05
685.841	3300.35
686.167	3228.44
686.493	3376.02
686.819	3402.23
687.145	3144.96
687.471	2721.86
687.797	2410.97
688.123	2464.57
688.448	2605.32
688.774	2830.25
689.1	2861.31
689.425	2652.73
689.751	2458.22
690.076	2678.07
690.402	3121.41
690.727	3454.62
691.052	3384.48
691.377	3039.74
691.703	2962.93
692.028	2818.43
692.353	2990.37
692.678	2970.34
693.003	2886.59
693.328	2476.17
693.652	2168.45
693.977	2160.13
694.302	2456.29
694.627	2711.4
694.951	2551.81
695.276	2165.95
695.6	1941.28
695.925	2382.77
696.249	3235.55
696.574	3798.69
696.898	3656.77
697.222	3132.64
697.546	2790.65
697.871	2631.51
698.195	2668.43
698.519	2523.39
698.843	2410.42
699.167	2224.72
699.491	2046.06
699.814	1959.08
700.138	1980.49
700.462	2003.84
700.786	2000.22
701.109	2030.51
701.433	2254.08
701.756	2453.52
702.08	2468.72
702.403	2406.55
702.726	2156.8
703.05	2046.06
703.373	1990.5
703.696	2005.78
704.019	1947.96
704.342	1747.74
704.665	1648.4
704.988	1619.36
705.311	1784.54
705.634	2165.95
705.957	2764.52
706.28	3200.53
706.602	3430.61
706.925	3254.7
707.247	3001.07
707.57	2718.55
707.892	2544.91
708.215	2350.41
708.537	2153.2
708.859	2089.38
709.182	2174.27
709.504	2295.34
709.826	2444.41
710.148	2399.63
710.47	2290.36
710.792	2124.35
711.114	2002.45
711.436	1883.69
711.758	1895.66
712.079	1972.98
712.401	2195.34
712.723	2327.17
713.044	2575.53
713.366	2775.8
713.687	2777.45
714.009	2551.26
714.33	2423.96
714.652	2294.51
714.973	2217.51
715.294	1937.67
715.615	1751.09
715.936	1619.36
716.257	1603.16
716.578	1645.89
716.899	1673.53
717.22	1938.23
717.541	2039.4
717.862	2123.79
718.182	2053.01
718.503	2149.04
718.824	2136.28
719.144	2110.47
719.465	1939.34
719.785	1994.11
720.105	2062.17
720.426	2096.04
720.746	2122.13
721.066	2016.62
721.386	1981.05
721.706	1863.65
722.026	1811.01
722.346	1772.27
722.666	1794.57
722.986	1913.75
723.306	1840.81
723.626	1849.45
723.946	1799.59
724.265	1944.34
724.585	2209.48
724.904	2312.78
725.224	2298.66
725.543	2308.07
725.863	2249.93
726.182	2131.28
726.501	1941.28
726.82	1978.27
727.14	2093.27
727.459	2254.08
727.778	2283.16
728.097	2229.7
728.416	2237.46
728.734	2363.69
729.053	2492.74
729.372	2461.53
729.691	2544.36
730.009	2839.87
730.328	3025.76
730.647	3137.84
730.965	2890.16
731.283	2680.55
731.602	2483.63
731.92	2610
732.238	2708.92
732.557	2875.88
732.875	2926.69
733.193	3265.63
733.511	3554.94
733.829	3429.79
734.147	3023.84
734.465	2662.64
734.782	2629.02
735.1	2735.62
735.418	2848.4
735.735	2815.68
736.053	2887.69
736.371	2828.6
736.688	2671.74
737.005	2386.36
737.323	2187.02
737.64	2106.86
737.957	2271.53
738.274	2749.38
738.592	3036.45
738.909	2963.75
739.226	2472.86
739.543	2107.14
739.86	1866.71
740.176	1769.76
740.493	1678
740.81	1619.92
741.127	1628.58
741.443	1827.72
741.76	2027.18
742.076	2035.23
742.393	1870.05
742.709	1641.14
743.025	1568.23
743.342	1552.29
743.658	1639.75
743.974	1758.61
744.29	1770.6
744.606	1734.63
744.922	1675.48
745.238	1675.2
745.554	1599.25
745.87	1598.97
746.186	1667.11
746.501	1821.04
746.817	1863.37
747.132	1606.51
747.448	1434.22
747.763	1446.26
748.079	1529.36
748.394	1860.59
748.71	2049.95
749.025	2366.45
749.34	2505.17
749.655	2395.76
749.97	2243.56
750.285	2095.21
750.6	2142.38
750.915	2300.6
751.23	2283.44
751.545	2129.89
751.859	1945.46
752.174	1806.83
752.489	2015.23
752.803	2301.71
753.118	2435.84
753.432	2287.59
753.747	2117.13
754.061	2161.79
754.375	2316.38
754.689	2576.91
755.004	2630.4
755.318	2672.01
755.632	2899.23
755.946	3075.65
756.26	3281.22
756.573	3644.26
756.887	3906.19
757.201	3791.36
757.515	3235.28
757.828	2679.45
758.142	2583.26
758.455	2953.05
758.769	3391.86
759.082	3654.6
759.396	3775.6
759.709	3868.2
760.022	3855.45
760.335	3491.16
760.648	2971.44
760.962	2527.25
761.275	2235.8
761.587	2161.52
761.9	2224.44
762.213	2323.3
762.526	2529.73
762.839	2595.67
763.151	2737.27
763.464	3029.87
763.776	3553.85
764.089	3841.06
764.401	3618.94
764.714	3197.25
765.026	2702.03
765.338	2389.13
765.65	2019.4
765.962	1776.45
766.275	1689.16
766.587	1688.6
766.898	1780.36
767.21	2058.01
767.522	2443.3
767.834	2713.32
768.146	2668.98
768.457	2445.51
768.769	2108.53
769.08	1986.61
769.392	2179.54
769.703	2403.78
770.015	2625.44
770.326	2746.63
770.637	2515.66
770.948	2182.59
771.26	1814.07
771.571	1776.18
771.882	1884.8
772.193	1936.83
772.504	1828
772.814	1735.75
773.125	1696.41
773.436	1592.54
773.747	1507.55
774.057	1434.5
774.368	1455.49
774.678	1392.76
774.989	1314.55
775.299	1241.87
775.609	1255.34
775.919	1301.36
776.23	1316.79
776.54	1327.73
776.85	1321
777.16	1328.01
777.47	1492.72
777.78	1636.68
778.089	1840.26
778.399	1843.6
778.709	1754.43
779.019	1560.96
779.328	1300.24
779.638	1289.86
779.947	1545.3
780.257	1882.02
780.566	2101.87
780.875	2084.1
781.185	1794.01
781.494	1664.6
781.803	1655.66
782.112	1549.5
782.421	1591.42
782.73	1643.1
783.039	1672.13
783.348	1479.57
783.656	1282.28
783.965	1249.73
784.274	1313.43
784.582	1438.7
784.891	1474.25
785.199	1432.82
785.508	1338.38
785.816	1303.89
786.124	1360.25
786.432	1458.57
786.741	1626.62
787.049	1629.97
787.357	1581.92
787.665	1576.33
787.973	1610.42
788.281	1484.88
788.588	1365.02
788.896	1182.88
789.204	1107.54
789.511	1105.01
789.819	1070.68
790.126	1065.9
790.434	1081.37
790.741	1096.01
791.049	1097.69
791.356	1066.46
791.663	986.21
791.97	991
792.277	1000.57
792.584	1105.29
792.891	1408.17
793.198	1625.23
793.505	1773.11
793.812	1665.16
794.119	1488.24
794.425	1424.69
794.732	1328.29
795.038	1152.25
795.345	965.92
795.651	842.65
795.958	844.63
796.264	899.66
796.57	1056.61
796.876	1113.73
797.183	1072.65
797.489	979.73
797.795	990.15
798.101	963.1
798.406	981.98
798.712	930.4
799.018	918.84
799.324	862.69
799.629	866.64
799.935	873.42
800.24	858.18
800.546	855.92
800.851	818.37
801.157	782.49
801.462	765.26
801.767	755.65
802.072	825.43
802.377	879.34
802.682	910.94
802.987	874.55
803.292	808.48
803.597	780.23
803.902	800.86
804.207	805.66
804.511	829.95
804.816	902.76
805.12	1006.77
805.425	1132.29
805.729	1142.13
806.034	1068.43
806.338	961.13
806.642	895.42
806.946	905.3
807.251	920.53
807.555	904.45
807.859	941.96
808.162	901.63
808.466	853.94
808.77	821.76
809.074	768.08
809.378	748.3
809.681	760.17
809.985	792.66
810.288	773.45
810.592	770.06
810.895	746.04
811.198	673.06
811.502	641.08
811.805	665.99
812.108	689.19
812.411	755.65
812.714	804.53
813.017	903.61
813.32	926.17
813.623	869.47
813.926	780.52
814.228	703.62
814.531	662.88
814.833	631.45
815.136	633.15
815.438	643.63
815.741	672.78
816.043	683.82
816.345	713.24
816.648	725.96
816.95	650.7
817.252	663.72
817.554	671.65
817.856	637.12
818.158	617.58
818.46	634.28
818.761	646.18
819.063	633.15
819.365	686.65
819.666	711.82
819.968	770.91
820.269	786.17
820.571	751.69
820.872	696.83
821.173	625.22
821.475	640.51
821.776	619.56
822.077	631.74
822.378	606.82
822.679	608.8
822.98	600.58
823.281	603.98
823.581	614.46
823.882	602.57
824.183	625.51
824.483	609.08
824.784	681.27
825.084	669.1
825.385	676.46
825.685	629.75
825.985	614.46
826.286	606.25
826.586	655.23
826.886	628.91
827.186	654.1
827.486	624.94
827.786	612.2
828.086	611.06
828.386	612.2
828.685	613.33
828.985	612.2
829.285	574.52
829.584	549.58
829.884	551.28
830.183	517.82
830.482	520.37
830.782	523.49
831.081	526.61
831.38	550.71
831.679	527.46
831.978	563.75
832.277	580.19
832.576	547.59
832.875	601.15
833.174	560.92
833.472	561.77
833.771	570.27
834.07	588.4
834.368	590.1
834.667	520.66
834.965	577.07
835.263	555.81
835.562	563.75
835.86	532.28
836.158	547.59
836.456	525.48
836.754	521.79
837.052	527.18
837.35	503.07
837.648	522.08
837.946	498.25
838.243	496.26
838.541	510.16
838.839	551.84
839.136	531.72
839.434	519.52
839.731	529.73
840.028	508.18
840.326	514.13
840.623	510.73
840.92	503.07
841.217	487.47
841.514	488.89
841.811	515.84
842.108	497.97
842.405	487.19
842.701	496.55
842.998	509.6
843.295	499.95
843.591	497.4
843.888	509.6
844.184	475.55
844.481	478.67
844.777	501.37
845.073	473
845.369	506.76
845.665	511.3
845.962	497.12
846.258	482.08
846.553	493.71
846.849	472.71
847.145	488.04
847.441	501.94
847.737	503.07
848.032	514.13
848.328	482.93
848.623	470.44
848.919	503.07
849.214	509.31
849.509	480.09
849.805	503.36
850.1	493.71
850.395	473.57
850.69	477.54
850.985	496.26
851.28	491.44
851.575	483.5
851.869	502.22
852.164	481.8
852.459	501.09
852.753	513
853.048	550.14
853.342	581.89
853.637	539.65
853.931	552.13
854.225	558.93
854.52	540.51
854.814	525.48
855.108	536.82
855.402	506.19
855.696	507.89
855.99	509.88
856.283	502.22
856.577	530.01
856.871	526.61
857.164	514.7
857.458	508.46
857.751	497.68
858.045	486.9
858.338	479.53
858.632	487.19
858.925	486.05
859.218	487.75
859.511	485.2
859.804	486.9
860.097	478.67
860.39	493.14
860.683	476.69
860.976	504.49
861.268	497.97
861.561	482.65
861.854	494.85
862.146	521.79
862.439	494.28
862.731	488.89
863.023	470.16
863.316	489.74
863.608	495.7
863.9	498.53
864.192	475.27
864.484	483.78
864.776	499.67
865.068	476.12
865.36	478.39
865.651	468.74
865.943	469.31
866.235	478.39
866.526	507.04
866.818	477.54
867.109	492.29
867.4	501.65
867.692	466.47
867.983	472.15
868.274	501.37
868.565	473
868.856	459.09
869.147	472.71
869.438	470.16
869.729	482.08
870.02	483.78
870.31	479.81
870.601	482.93
870.892	452.56
871.182	502.51
871.473	485.77
871.763	471.01
872.053	486.9
872.343	505.91
872.634	487.19
872.924	459.66
873.214	485.77
873.504	490.31
873.794	498.25
874.084	484.63
874.373	490.87
874.663	485.2
874.953	482.93
875.242	503.64
875.532	479.53
875.821	480.38
876.111	482.36
876.4	453.42
876.689	490.59
876.978	470.44
877.268	475.27
877.557	455.97
877.846	498.53
878.134	480.09
878.423	480.09
878.712	480.09
