Data from FLMS007011_12-37-01-488.txt Node
Date: Thu Apr 21 12:37:01 MDT 2016
User: lab_user
Spectrometer: FLMS00701
Autoset integration time: false
Trigger mode: 0
Integration Time (sec): 5.000000E-3
Scans to average: 10
Electric dark correction enabled: true
Nonlinearity correction enabled: true
Boxcar width: 0
XAxis mode: Wavelengths
Stop averaging: false
Number of Pixels in Spectrum: 2048
>>>>>Begin Spectral Data<<<<<
178.41	27.36
178.791	27.36
179.172	27.36
179.553	-36.07
179.934	-35.5
180.316	-83.25
180.697	-52.08
181.078	-50.08
181.459	-61.8
181.84	-23.49
182.221	-52.36
182.602	-35.78
182.983	-4.06
183.364	18.79
183.744	59.33
184.125	70.18
184.506	68.18
184.887	135.51
185.268	130.95
185.648	131.23
186.029	189.38
186.41	187.38
186.791	237.8
187.171	261.71
187.552	274.23
187.932	272.24
188.313	317.48
188.694	310.65
189.074	360.41
189.455	340.79
189.835	371.49
190.216	378.6
190.596	399.05
190.977	380.02
191.357	413.82
191.737	420.35
192.118	457.83
192.498	445.06
192.878	449.31
193.258	445.91
193.639	448.18
194.019	462.37
194.399	485.07
194.779	441.08
195.159	418.93
195.54	445.06
195.92	461.24
196.3	460.1
196.68	476.28
197.06	435.4
197.44	463.79
197.82	443.35
198.2	439.95
198.58	446.76
198.959	423.19
199.339	452.44
199.719	437.11
200.099	419.79
200.479	435.4
200.858	438.24
201.238	429.73
201.618	418.37
201.998	432.28
202.377	443.35
202.757	429.73
203.136	433.42
203.516	405.02
203.896	415.24
204.275	408.43
204.655	415.24
205.034	417.23
205.414	403.88
205.793	395.93
206.172	392.23
206.552	427.45
206.931	415.53
207.31	423.76
207.69	428.59
208.069	412.69
208.448	397.92
208.827	426.89
209.207	439.95
209.586	423.19
209.965	422.91
210.344	405.59
210.723	430.29
211.102	424.61
211.481	412.69
211.86	428.87
212.239	441.37
212.618	468.33
212.997	472.3
213.376	418.08
213.755	437.11
214.134	458.68
214.513	437.11
214.891	427.17
215.27	447.61
215.649	453.29
216.028	418.93
216.406	441.65
216.785	449.88
217.164	463.79
217.542	467.76
217.921	473.16
218.3	471.74
218.678	453.29
219.057	431.14
219.435	459.25
219.814	461.8
220.192	483.37
220.57	466.35
220.949	443.92
221.327	455.56
221.705	453.01
222.084	467.76
222.462	457.55
222.84	482.24
223.218	517.98
223.597	498.12
223.975	491.32
224.353	508.9
224.731	532.16
225.109	532.44
225.487	516.56
225.865	516.56
226.243	528.47
226.621	521.1
226.999	519.11
227.377	555.12
227.755	533.57
228.133	544.35
228.511	552.29
228.889	549.73
229.266	569.01
229.644	554.55
230.022	575.24
230.4	589.13
230.777	589.41
231.155	606.41
231.533	609.81
231.91	590.54
232.288	638.97
232.665	654.82
233.043	618.58
233.42	638.12
233.798	621.7
234.175	638.69
234.553	635.57
234.93	667.84
235.307	659.64
235.685	688.22
236.062	663.32
236.439	689.63
236.816	704.06
237.194	704.91
237.571	746.76
237.948	705.19
238.325	736.3
238.702	736.02
239.079	743.37
239.456	791.13
239.833	784.63
240.21	813.16
240.587	806.1
240.964	836.03
241.341	827.56
241.718	846.76
242.095	828.69
242.472	908.28
242.849	869.91
243.225	878.37
243.602	896.71
243.979	887.12
244.356	944.09
244.732	930.55
245.109	937.32
245.486	964.1
245.862	951.98
246.239	978.47
246.615	952.83
246.992	973.4
247.368	1029.46
247.745	1010.03
248.121	1010.59
248.497	1004.11
248.874	1047.48
249.25	1066.9
249.626	1055.36
250.003	1066.34
250.379	1093.35
250.755	1073.09
251.131	1092.79
251.507	1117.54
251.884	1144.25
252.26	1093.07
252.636	1106.01
253.012	1142.85
253.388	1189.5
253.764	1165.05
254.14	1157.46
254.516	1204.11
254.892	1163.65
255.268	1210.29
255.643	1227.42
256.019	1193.72
256.395	1219.28
256.771	1182.76
257.147	1249.88
257.522	1220.96
257.898	1258.59
258.274	1254.94
258.649	1253.53
259.025	1254.94
259.4	1244.55
259.776	1282.72
260.151	1270.65
260.527	1257.18
260.902	1267.85
261.278	1278.51
261.653	1265.6
262.028	1244.55
262.404	1292.82
262.779	1300.12
263.154	1299.28
263.53	1269.25
263.905	1330.13
264.28	1317.23
264.655	1287.77
265.03	1303.2
265.405	1318.63
265.781	1308.53
266.156	1288.33
266.531	1313.58
266.906	1346.11
267.281	1321.71
267.655	1361.53
268.03	1324.24
268.405	1307.97
268.78	1309.93
269.155	1347.51
269.53	1336.02
269.904	1339.38
270.279	1299.84
270.654	1311.62
271.029	1323.96
271.403	1343.59
271.778	1330.41
272.152	1302.08
272.527	1324.24
272.901	1337.14
273.276	1351.72
273.65	1342.47
274.025	1313.02
274.399	1332.37
274.774	1331.53
275.148	1297.31
275.522	1353.12
275.897	1339.66
276.271	1329.85
276.645	1336.3
277.019	1366.85
277.393	1357.6
277.768	1372.46
278.142	1357.04
278.516	1337.7
278.89	1370.5
279.264	1391.8
279.638	1372.46
280.012	1366.01
280.386	1379.19
280.76	1350.32
281.133	1365.17
281.507	1326.76
281.881	1377.78
282.255	1403.84
282.629	1367.7
283.002	1357.04
283.376	1383.67
283.75	1408.32
284.123	1401.32
284.497	1379.19
284.87	1411.69
285.244	1376.66
285.618	1390.67
285.991	1385.63
286.364	1383.39
286.738	1419.25
287.111	1412.53
287.485	1405.52
287.858	1431.85
288.231	1433.53
288.605	1404.12
288.978	1448.93
289.351	1453.97
289.724	1431.57
290.097	1448.09
290.47	1420.09
290.843	1424.57
291.217	1472.72
291.59	1424.57
291.963	1435.49
292.336	1452.57
292.708	1404.96
293.081	1410.01
293.454	1417.29
293.827	1413.09
294.2	1431.01
294.573	1434.09
294.945	1422.33
295.318	1407.76
295.691	1406.36
296.064	1397.4
296.436	1394.6
296.809	1377.78
297.181	1385.07
297.554	1417.57
297.926	1417.29
298.299	1393.48
298.671	1422.61
299.044	1422.61
299.416	1369.66
299.788	1389.83
300.161	1391.8
300.533	1410.01
300.905	1423.45
301.278	1420.37
301.65	1429.05
302.022	1414.77
302.394	1414.77
302.766	1389.27
303.138	1424.85
303.51	1406.92
303.882	1411.97
304.254	1415.33
304.626	1429.89
304.998	1428.49
305.37	1400.48
305.742	1426.25
306.114	1397.4
306.485	1425.13
306.857	1452.01
307.229	1396.84
307.601	1418.13
307.972	1425.41
308.344	1406.08
308.716	1416.73
309.087	1410.57
309.459	1436.33
309.83	1394.32
310.202	1424.29
310.573	1418.97
310.945	1375.82
311.316	1407.76
311.687	1432.41
312.059	1400.76
312.43	1398.24
312.801	1420.09
313.172	1391.23
313.544	1417.57
313.915	1436.61
314.286	1433.81
314.657	1407.76
315.028	1408.88
315.399	1407.76
315.77	1416.45
316.141	1373.3
316.512	1396.84
316.883	1413.65
317.254	1420.37
317.625	1401.04
317.996	1388.15
318.366	1401.88
318.737	1421.21
319.108	1425.13
319.478	1404.12
319.849	1412.81
320.22	1400.76
320.59	1384.23
320.961	1392.64
321.331	1408.88
321.702	1399.08
322.072	1417.57
322.443	1387.59
322.813	1395.16
323.184	1386.19
323.554	1375.54
323.924	1368.26
324.295	1364.33
324.665	1428.77
325.035	1379.19
325.405	1383.67
325.775	1395.72
326.145	1374.98
326.515	1361.25
326.886	1390.95
327.256	1352.28
327.626	1365.17
327.995	1296.75
328.365	1313.86
328.735	1334.05
329.105	1379.19
329.475	1372.74
329.845	1409.73
330.215	1411.41
330.584	1373.02
330.954	1398.8
331.324	1396
331.693	1411.41
332.063	1373.02
332.432	1413.37
332.802	1433.53
333.171	1428.77
333.541	1435.49
333.91	1471.05
334.28	1418.69
334.649	1416.17
335.018	1395.16
335.388	1417.01
335.757	1380.87
336.126	1389.27
336.495	1380.59
336.865	1397.96
337.234	1364.05
337.603	1370.78
337.972	1371.34
338.341	1400.2
338.71	1368.26
339.079	1395.16
339.448	1383.95
339.817	1367.13
340.186	1382.55
340.554	1377.5
340.923	1398.52
341.292	1361.53
341.661	1358.73
342.029	1388.15
342.398	1374.7
342.767	1392.36
343.135	1403
343.504	1378.06
343.872	1397.68
344.241	1387.87
344.609	1359.01
344.978	1344.15
345.346	1384.23
345.715	1383.95
346.083	1337.42
346.451	1366.57
346.82	1364.89
347.188	1380.03
347.556	1389.27
347.924	1384.23
348.292	1354.24
348.66	1371.62
349.028	1400.48
349.396	1336.86
349.764	1372.18
350.132	1365.45
350.5	1377.22
350.868	1366.29
351.236	1338.54
351.604	1341.06
351.972	1359.85
352.34	1365.17
352.707	1348.91
353.075	1349.76
353.443	1314.98
353.81	1343.03
354.178	1360.69
354.545	1355.92
354.913	1337.14
355.28	1367.98
355.648	1350.32
356.015	1332.93
356.383	1325.92
356.75	1323.96
357.117	1346.11
357.485	1317.51
357.852	1348.35
358.219	1303.76
358.586	1327.6
358.954	1323.4
359.321	1310.78
359.688	1325.08
360.055	1322.28
360.422	1326.2
360.789	1321.43
361.156	1329.29
361.523	1326.76
361.89	1332.93
362.256	1313.86
362.623	1310.78
362.99	1299.28
363.357	1250.16
363.724	1275.99
364.09	1321.15
364.457	1258.02
364.823	1327.6
365.19	1315.54
365.557	1337.7
365.923	1276.27
366.29	1316.67
366.656	1310.22
367.022	1262.23
367.389	1297.03
367.755	1284.12
368.121	1293.94
368.488	1285.25
368.854	1280.2
369.22	1279.07
369.586	1266.44
369.952	1300.96
370.318	1282.44
370.684	1270.09
371.051	1273.18
371.416	1231.91
371.782	1242.86
372.148	1244.55
372.514	1246.23
372.88	1260.83
373.246	1238.37
373.612	1283.84
373.977	1268.41
374.343	1242.86
374.709	1238.93
375.074	1227.7
375.44	1235.56
375.806	1255.5
376.171	1250.44
376.537	1218.72
376.902	1233.32
377.268	1242.02
377.633	1244.83
377.998	1269.81
378.364	1242.86
378.729	1258.3
379.094	1277.39
379.459	1263.08
379.825	1226.3
380.19	1232.76
380.555	1227.42
380.92	1219.28
381.285	1216.47
381.65	1199.62
382.015	1236.41
382.38	1199.05
382.745	1193.43
383.11	1188.66
383.474	1196.24
383.839	1188.1
384.204	1193.15
384.569	1203.55
384.933	1208.32
385.298	1219.28
385.663	1166.18
386.027	1180.51
386.392	1193.72
386.756	1209.73
387.121	1211.69
387.485	1211.97
387.849	1202.99
388.214	1188.66
388.578	1193.72
388.942	1169.55
389.307	1179.95
389.671	1188.66
390.035	1187.53
390.399	1202.99
390.763	1188.94
391.127	1211.97
391.492	1223.21
391.856	1223.49
392.219	1240.62
392.583	1259.71
392.947	1248.48
393.311	1210.01
393.675	1162.8
394.039	1214.5
394.403	1172.92
394.766	1155.5
395.13	1194.28
395.494	1198.21
395.857	1194.56
396.221	1175.45
396.584	1204.95
396.948	1208.32
397.311	1236.97
397.675	1228.83
398.038	1240.62
398.401	1192.87
398.765	1204.95
399.128	1216.75
399.491	1188.38
399.854	1203.27
400.218	1140.03
400.581	1173.2
400.944	1174.05
401.307	1119.51
401.67	1139.19
402.033	1136.38
402.396	1143.97
402.759	1124.29
403.122	1172.08
403.485	1159.15
403.847	1144.81
404.21	1161.68
404.573	1165.9
404.936	1175.17
405.298	1183.6
405.661	1170.11
406.023	1118.95
406.386	1135.26
406.749	1099.26
407.111	1080.12
407.473	1093.35
407.836	1106.29
408.198	1129.07
408.561	1137.22
408.923	1138.35
409.285	1136.94
409.647	1115.57
410.009	1129.35
410.372	1077.87
410.734	1093.07
411.096	1124.57
411.458	1088.28
411.82	1136.38
412.182	1139.19
412.544	1127.66
412.906	1109.1
413.267	1115.85
413.629	1112.76
413.991	1084.91
414.353	1130.47
414.714	1081.53
415.076	1089.97
415.438	1080.69
415.799	1103.19
416.161	1092.79
416.522	1076.47
416.884	1071.4
417.245	1085.47
417.607	1067.18
417.968	1075.9
418.329	1093.91
418.691	1084.91
419.052	1084.63
419.413	1081.81
419.774	1095.6
420.135	1115.29
420.497	1124.85
420.858	1141.44
421.219	1150.44
421.58	1147.63
421.941	1149.59
422.302	1075.34
422.662	1115.57
423.023	1101.23
423.384	1060.42
423.745	1091.38
424.106	1083.78
424.466	1098.13
424.827	1061.55
425.187	1068.02
425.548	1059.86
425.909	1067.46
426.269	1044.38
426.63	1050.85
426.99	1055.36
427.35	1053.11
427.711	1041
428.071	1048.04
428.431	1090.82
428.792	1135.26
429.152	1154.93
429.512	1178.54
429.872	1195.4
430.232	1174.61
430.592	1136.66
430.952	1096.16
431.312	1067.18
431.672	1055.64
432.032	1059.58
432.392	1075.9
432.752	1080.97
433.111	1137.22
433.471	1124.29
433.831	1086.88
434.19	1074.21
434.55	1056.2
434.91	1025.51
435.269	1080.69
435.629	1093.63
435.988	1109.1
436.348	1089.97
436.707	1079.56
437.066	1071.4
437.426	1067.46
437.785	1088.85
438.144	1051.14
438.503	1074.5
438.862	1037.34
439.222	1066.34
439.581	1075.9
439.94	1035.93
440.299	1076.75
440.658	1105.16
441.017	1132.72
441.376	1106.85
441.734	1088.57
442.093	1088.85
442.452	1068.02
442.811	1120.91
443.169	1115.57
443.528	1091.38
443.887	1075.62
444.245	1086.88
444.604	1071.4
444.962	1082.66
445.321	1031.43
445.679	1082.94
446.038	1073.09
446.396	1051.42
446.754	1066.62
447.112	1062.96
447.471	1013.12
447.829	1029.46
448.187	1036.78
448.545	1028.05
448.903	1009.46
449.261	1036.21
449.619	1021.01
449.977	1013.97
450.335	964.95
450.693	1044.1
451.051	999.04
451.409	982.14
451.766	982.7
452.124	982.98
452.482	970.3
452.839	957.34
453.197	971.99
453.555	951.7
453.912	968.33
454.27	983.26
454.627	966.07
454.984	951.98
455.342	968.89
455.699	982.98
456.056	992.84
456.414	1002.42
456.771	993.41
457.128	1012.84
457.485	971.99
457.842	981.29
458.199	1014.25
458.556	999.88
458.913	984.95
459.27	987.21
459.627	990.31
459.984	1010.87
460.341	988.62
460.697	994.81
461.054	980.45
461.411	929.43
461.767	909.4
462.124	922.09
462.481	950.01
462.837	947.47
463.194	977.06
463.55	929.99
463.907	978.19
464.263	1001.86
464.619	1010.31
464.976	1044.66
465.332	1063.52
465.688	1031.15
466.044	999.6
466.4	964.66
466.756	964.1
467.112	946.34
467.468	944.65
467.824	940.14
468.18	953.39
468.536	924.35
468.892	918.15
469.248	910.81
469.604	918.99
469.959	882.89
470.315	911.1
470.671	908.28
471.026	917.86
471.382	928.58
471.737	911.1
472.093	933.37
472.448	926.89
472.804	953.11
473.159	978.75
473.514	971.71
473.87	976.22
474.225	986.08
474.58	1012.28
474.935	1020.45
475.29	1021.01
475.645	1038.47
476	1002.98
476.355	1027.49
476.71	1035.93
477.065	1020.45
477.42	1014.25
477.775	1040.72
478.13	1040.16
478.485	1052.26
478.839	1056.77
479.194	1087.72
479.549	1075.34
479.903	1125.13
480.258	1109.1
480.612	1112.2
480.967	1133.01
481.321	1170.11
481.675	1177.7
482.03	1118.66
482.384	1094.47
482.738	1101.51
483.093	1107.98
483.447	1102.07
483.801	1128.23
484.155	1154.93
484.509	1268.97
484.863	1965.91
485.217	2581.48
485.571	2879.88
485.925	2479.64
486.279	1967.86
486.632	1643.53
486.986	1388.43
487.34	1228.26
487.694	1171.24
488.047	1156.9
488.401	1137.5
488.754	1137.22
489.108	1099.26
489.461	1063.24
489.815	1107.13
490.168	1075.62
490.522	1081.81
490.875	1096.72
491.228	1097.01
491.581	1086.88
491.935	1098.69
492.288	1083.22
492.641	1059.02
492.994	1105.16
493.347	1081.53
493.7	1079.84
494.053	1129.91
494.406	1107.98
494.759	1103.19
495.111	1085.75
495.464	1136.66
495.817	1156.62
496.169	1143.13
496.522	1095.32
496.875	1056.48
497.227	1057.89
497.58	1078.44
497.932	1052.82
498.285	1060.71
498.637	1062.68
498.989	1084.34
499.342	1081.53
499.694	1088.57
500.046	1066.05
500.398	1041.28
500.751	1088.57
501.103	1094.47
501.455	1106.29
501.807	1140.03
502.159	1057.89
502.511	1067.74
502.862	1109.95
503.214	1061.27
503.566	1065.21
503.918	1050.57
504.27	1051.98
504.621	1047.19
504.973	1036.21
505.324	1027.49
505.676	1050.85
506.027	1064.08
506.379	1042.69
506.73	1007.77
507.082	999.88
507.433	1008.9
507.784	1054.8
508.136	997.91
508.487	1024.67
508.838	1003.55
509.189	974.25
509.54	1015.94
509.891	1005.52
510.242	1006.36
510.593	964.1
510.944	1015.09
511.295	988.33
511.646	941.55
511.996	956.21
512.347	937.88
512.698	974.25
513.049	990.59
513.399	946.62
513.75	985.52
514.1	951.42
514.451	943.81
514.801	950.85
515.152	933.37
515.502	924.07
515.852	929.14
516.202	961.56
516.553	958.18
516.903	926.04
517.253	937.6
517.603	924.07
517.953	937.88
518.303	918.15
518.653	923.79
519.003	974.53
519.353	945.21
519.703	884.58
520.052	889.09
520.402	885.42
520.752	891.63
521.102	882.89
521.451	879.78
521.801	882.89
522.15	899.53
522.5	908.28
522.849	896.15
523.199	907.99
523.548	893.61
523.897	928.86
524.246	933.09
524.596	888.53
524.945	878.94
525.294	878.94
525.643	892.2
525.992	878.94
526.341	908.28
526.69	889.37
527.039	868.49
527.388	849.58
527.737	871.6
528.086	901.22
528.434	902.07
528.783	942.4
529.132	889.94
529.48	929.14
529.829	871.03
530.177	887.96
530.526	856.92
530.874	905.74
531.223	874.14
531.571	876.4
531.919	903.76
532.268	926.04
532.616	916.74
532.964	984.67
533.312	961.28
533.66	966.07
534.008	939.58
534.356	925.48
534.704	934.22
535.052	921.53
535.4	908.28
535.748	894.45
536.095	877.52
536.443	876.68
536.791	870.75
537.139	898.97
537.486	942.11
537.834	940.99
538.181	920.97
538.529	929.71
538.876	944.37
539.223	916.17
539.571	925.76
539.918	922.66
540.265	909.4
540.613	933.09
540.96	935.91
541.307	937.04
541.654	949.16
542.001	916.74
542.348	907.15
542.695	946.34
543.042	937.6
543.388	940.99
543.735	938.45
544.082	944.65
544.429	973.96
544.775	924.91
545.122	898.4
545.469	919.56
545.815	880.91
546.162	876.4
546.508	900.09
546.854	905.45
547.201	987.49
547.547	965.79
547.893	976.22
548.24	929.43
548.586	911.66
548.932	893.32
549.278	865.95
549.624	869.62
549.97	874.14
550.316	866.24
550.662	843.09
551.008	871.32
551.353	901.79
551.699	911.1
552.045	925.76
552.391	922.09
552.736	902.92
553.082	898.68
553.427	899.53
553.773	889.94
554.118	839.42
554.464	871.03
554.809	904.04
555.154	962.97
555.5	937.6
555.845	896.71
556.19	854.95
556.535	889.37
556.88	856.92
557.225	856.92
557.57	858.9
557.915	854.66
558.26	836.31
558.605	853.25
558.95	848.17
559.295	870.47
559.639	901.51
559.984	917.02
560.329	965.79
560.673	937.88
561.018	974.53
561.362	917.02
561.707	880.35
562.051	906.58
562.395	899.53
562.74	950.85
563.084	938.45
563.428	936.19
563.772	957.34
564.117	966.92
564.461	959.59
564.805	952.83
565.149	933.94
565.493	955.36
565.836	990.02
566.18	971.15
566.524	1040.16
566.868	1068.87
567.212	1153.25
567.555	1132.72
567.899	1191.75
568.242	1246.51
568.586	1341.06
568.929	1450.61
569.273	1562.79
569.616	1640.74
569.96	1711.91
570.303	1749.85
570.646	1806.43
570.989	1867.42
571.333	1879.95
571.676	1880.51
572.019	1702.15
572.362	1710.24
572.705	1784.13
573.048	1933.93
573.391	2118.12
573.733	2213.51
574.076	2258.67
574.419	2248.97
574.762	2142.81
575.104	2006.21
575.447	1879.39
575.789	1928.09
576.132	2079.82
576.474	2198.82
576.817	2363.29
577.159	2680.7
577.501	2739.63
577.844	2690.34
578.186	2366.33
578.528	2105.35
578.87	2020.66
579.212	1974.25
579.554	2083.98
579.896	2071.21
580.238	2232.35
580.58	2561.89
580.922	2977.9
581.264	3241.72
581.606	3181.8
581.947	2900.48
582.289	2557.76
582.631	2179.69
582.972	1872.15
583.314	1788.04
583.655	1764.62
583.997	1894.7
584.338	2147.8
584.679	2340.6
585.021	2426.05
585.362	2314.59
585.703	2144.47
586.044	1962.85
586.385	1983.42
586.726	2115.9
587.067	2132.82
587.408	1984.26
587.749	1899.71
588.09	1811.44
588.431	1653.59
588.772	1573.69
589.113	1496.79
589.453	1504.06
589.794	1471.05
590.134	1402.16
590.475	1328.45
590.815	1331.53
591.156	1329.01
591.496	1325.08
591.837	1472.17
592.177	1712.47
592.517	1960.35
592.857	1959.79
593.198	1882.45
593.538	1722.24
593.878	1590.74
594.218	1502.67
594.558	1571.74
594.898	1555.24
595.237	1493.43
595.577	1417.29
595.917	1308.25
596.257	1280.2
596.596	1311.62
596.936	1346.39
597.276	1306.01
597.615	1339.94
597.955	1436.05
598.294	1576.77
598.633	1668.1
598.973	1679.55
599.312	1666.15
599.651	1641.3
599.991	1618.96
600.33	1601.36
600.669	1531.48
601.008	1498.19
601.347	1390.39
601.686	1392.36
602.025	1384.51
602.364	1463.49
602.702	1506.02
603.041	1516.93
603.38	1473.84
603.719	1396.84
604.057	1326.2
604.396	1304.61
604.734	1357.32
605.073	1434.37
605.411	1460.97
605.75	1431.57
606.088	1405.24
606.426	1410.29
606.764	1380.87
607.103	1379.75
607.441	1350.32
607.779	1284.97
608.117	1294.79
608.455	1245.67
608.793	1215.91
609.131	1239.78
609.469	1276.55
609.806	1302.64
610.144	1237.25
610.482	1197.65
610.819	1180.23
611.157	1176.01
611.495	1133.01
611.832	1115.85
612.17	1133.57
612.507	1122.6
612.844	1120.35
613.182	1118.95
613.519	1140.6
613.856	1121.76
614.193	1120.07
614.53	1180.23
614.867	1169.83
615.205	1147.34
615.541	1127.94
615.878	1044.66
616.215	1033.68
616.552	1016.78
616.889	1044.38
617.226	1046.35
617.562	1048.6
617.899	994.53
618.235	948.6
618.572	916.45
618.908	888.81
619.245	922.94
619.581	934.78
619.918	898.12
620.254	846.48
620.59	807.51
620.926	798.47
621.262	841.11
621.599	869.06
621.935	852.97
622.271	911.66
622.606	940.42
622.942	950.29
623.278	942.68
623.614	904.61
623.95	935.91
624.285	898.12
624.621	886.84
624.957	874.42
625.292	843.94
625.628	800.45
625.963	812.88
626.299	802.71
626.634	815.7
626.969	833.21
627.304	772.76
627.64	754.67
627.975	742.8
628.31	736.02
628.645	751.28
628.98	744.78
629.315	778.41
629.65	752.69
629.985	718.48
630.319	740.54
630.654	728.95
630.989	724.7
631.323	723.01
631.658	720.46
631.993	691.33
632.327	700.66
632.662	672.37
632.996	689.35
633.33	702.93
633.665	678.03
633.999	654.82
634.333	653.69
634.667	656.52
635.001	691.05
635.335	677.47
635.669	694.44
636.003	689.35
636.337	663.03
636.671	704.06
637.005	648.88
637.339	643.22
637.672	644.07
638.006	650.3
638.339	669.54
638.673	646.9
639.006	648.6
639.34	633.88
639.673	646.62
640.007	628.78
640.34	651.71
640.673	608.96
641.006	631.04
641.34	637.27
641.673	638.97
642.006	614.62
642.339	612.35
642.672	589.69
643.004	613.49
643.337	603.86
643.67	592.81
644.003	614.05
644.336	618.87
644.668	608.96
645.001	583.46
645.333	606.97
645.666	599.04
645.998	566.46
646.331	607.26
646.663	597.63
646.995	600.74
647.327	614.62
647.66	635.86
647.992	646.62
648.324	663.32
648.656	640.39
648.988	610.09
649.32	621.42
649.652	604.99
649.983	598.76
650.315	583.46
650.647	582.33
650.979	608.11
651.31	591.39
651.642	634.16
651.973	638.69
652.305	618.02
652.636	635.57
652.967	615.47
653.299	599.89
653.63	620
653.961	617.17
654.292	701.51
654.623	1344.43
654.955	5079.45
655.286	9181.81
655.616	11753.66
655.947	10317.08
656.278	7141.09
656.609	4675.74
656.94	3145.39
657.27	2349.18
657.601	1834.56
657.932	1402.72
658.262	1036.78
658.593	821.63
658.923	706.6
659.254	628.78
659.584	595.93
659.914	577.51
660.244	576.66
660.575	556.82
660.905	579.78
661.235	557.39
661.565	557.1
661.895	564.47
662.225	556.82
662.555	561.07
662.884	561.92
663.214	560.51
663.544	578.08
663.873	574.39
664.203	562.21
664.533	571.28
664.862	573.83
665.192	563.91
665.521	553.7
665.85	534.71
666.18	552
666.509	552.57
666.838	544.35
667.167	546.62
667.496	558.52
667.825	543.78
668.154	547.18
668.483	539.81
668.812	534.43
669.141	540.95
669.47	559.66
669.798	537.54
670.127	557.67
670.456	565.04
670.784	569.86
671.113	585.73
671.441	601.59
671.77	647.47
672.098	644.07
672.426	610.09
672.755	593.09
673.083	581.19
673.411	583.46
673.739	578.93
674.067	568.16
674.395	544.07
674.723	569.01
675.051	542.65
675.379	538.11
675.706	569.29
676.034	561.07
676.362	568.16
676.689	603.86
677.017	571.28
677.344	582.04
677.672	600.74
677.999	610.65
678.327	575.24
678.654	579.78
678.981	625.38
679.308	633.88
679.636	590.83
679.963	621.42
680.29	591.96
680.617	601.59
680.944	601.02
681.271	579.49
681.597	574.68
681.924	572.98
682.251	585.16
682.578	570.71
682.904	565.61
683.231	572.98
683.557	612.35
683.884	616.89
684.21	613.49
684.536	606.97
684.863	616.04
685.189	635.86
685.515	640.1
685.841	606.12
686.167	639.54
686.493	590.54
686.819	623.97
687.145	608.96
687.471	581.76
687.797	586.29
688.123	585.73
688.448	567.59
688.774	578.08
689.1	578.08
689.425	573.83
689.751	554.55
690.076	570.99
690.402	582.04
690.727	592.24
691.052	597.91
691.377	618.3
691.703	580.34
692.028	586.01
692.353	583.74
692.678	596.78
693.003	611.5
693.328	594.51
693.652	570.14
693.977	569.01
694.302	553.42
694.627	547.47
694.951	588.28
695.276	560.79
695.6	546.62
695.925	537.26
696.249	599.61
696.574	599.89
696.898	606.41
697.222	573.54
697.546	594.51
697.871	586.01
698.195	584.31
698.519	581.76
698.843	547.18
699.167	569.86
699.491	549.45
699.814	534.14
700.138	576.09
700.462	528.47
700.786	555.69
701.109	531.87
701.433	554.84
701.756	564.19
702.08	567.59
702.403	552.85
702.726	531.59
703.05	530.74
703.373	569.01
703.696	560.79
704.019	540.38
704.342	525.07
704.665	533.29
704.988	518.26
705.311	522.23
705.634	534.43
705.957	544.07
706.28	584.31
706.602	582.89
706.925	603.86
707.247	588.56
707.57	591.96
707.892	576.66
708.215	551.15
708.537	571.28
708.859	523.93
709.182	531.87
709.504	559.94
709.826	581.48
710.148	568.16
710.47	548.6
710.792	546.33
711.114	561.92
711.436	537.26
711.758	523.08
712.079	528.47
712.401	539.81
712.723	557.39
713.044	573.54
713.366	571.84
713.687	566.17
714.009	578.64
714.33	549.17
714.652	579.49
714.973	559.66
715.294	534.14
715.615	528.75
715.936	534.14
716.257	551.72
716.578	509.75
716.899	515.14
717.22	519.96
717.541	530.17
717.862	523.37
718.182	565.89
718.503	577.23
718.824	551.72
719.144	538.68
719.465	549.73
719.785	555.97
720.105	538.39
720.426	545.77
720.746	555.4
721.066	538.11
721.386	553.42
721.706	526.49
722.026	508.34
722.346	538.39
722.666	532.72
722.986	542.08
723.306	534.71
723.626	527.05
723.946	492.45
724.265	534.14
724.585	559.66
724.904	568.44
725.224	542.65
725.543	546.62
725.863	554.55
726.182	544.35
726.501	529.89
726.82	553.7
727.14	553.7
727.459	517.7
727.778	553.99
728.097	572.98
728.416	543.5
728.734	539.81
729.053	542.93
729.372	555.4
729.691	543.21
730.009	575.81
730.328	550.87
730.647	585.73
730.965	579.21
731.283	589.13
731.602	570.71
731.92	557.95
732.238	586.86
732.557	570.99
732.875	563.91
733.193	593.09
733.511	604.14
733.829	587.14
734.147	599.61
734.465	558.81
734.782	572.98
735.1	570.43
735.418	588.28
735.735	588.56
736.053	591.96
736.371	579.49
736.688	556.25
737.005	536.98
737.323	553.42
737.64	552.29
737.957	548.88
738.274	569.57
738.592	581.48
738.909	575.24
739.226	563.62
739.543	572.98
739.86	528.75
740.176	531.31
740.493	526.49
740.81	543.78
741.127	544.07
741.443	514.86
741.76	528.47
742.076	515.14
742.393	519.4
742.709	501.53
743.025	486.49
743.342	487.34
743.658	538.68
743.974	510.89
744.29	521.1
744.606	538.68
744.922	515.43
745.238	518.55
745.554	530.46
745.87	521.95
746.186	548.6
746.501	543.78
746.817	526.77
747.132	513.72
747.448	522.8
747.763	517.41
748.079	495.85
748.394	529.89
748.71	521.1
749.025	527.9
749.34	563.62
749.655	529.32
749.97	555.97
750.285	554.84
750.6	544.63
750.915	540.95
751.23	553.7
751.545	535.84
751.859	529.04
752.174	511.74
752.489	557.1
752.803	538.96
753.118	565.89
753.432	537.83
753.747	548.6
754.061	542.36
754.375	529.04
754.689	544.63
755.004	553.7
755.318	562.21
755.632	559.94
755.946	577.51
756.26	598.48
756.573	591.11
756.887	599.04
757.201	594.51
757.515	581.76
757.828	588.28
758.142	587.43
758.455	620.57
758.769	616.89
759.082	622.55
759.396	587.14
759.709	614.34
760.022	626.23
760.335	617.45
760.648	575.53
760.962	581.48
761.275	541.23
761.587	560.79
761.9	580.06
762.213	540.1
762.526	566.46
762.839	582.89
763.151	585.16
763.464	558.52
763.776	597.63
764.089	623.12
764.401	605.27
764.714	590.26
765.026	596.78
765.338	563.91
765.65	566.74
765.962	526.2
766.275	538.11
766.587	533.29
766.898	558.81
767.21	520.25
767.522	555.4
767.834	564.19
768.146	521.38
768.457	557.95
768.769	559.94
769.08	553.42
769.392	527.9
769.703	569.29
770.015	533.86
770.326	553.99
770.637	561.36
770.948	530.17
771.26	530.46
771.571	551.15
771.882	524.22
772.193	520.53
772.504	552.57
772.814	538.96
773.125	530.46
773.436	523.93
773.747	508.9
774.057	525.92
774.368	536.98
774.678	486.78
774.989	517.13
775.299	504.36
775.609	515.71
775.919	509.47
776.23	510.32
776.54	482.8
776.85	497.56
777.16	493.3
777.47	523.93
777.78	493.59
778.089	491.88
778.399	509.19
778.709	540.1
779.019	531.02
779.328	529.89
779.638	502.95
779.947	524.22
780.257	524.78
780.566	543.78
780.875	556.25
781.185	522.8
781.494	518.83
781.803	516.28
782.112	496.42
782.421	517.7
782.73	532.72
783.039	521.95
783.348	528.47
783.656	500.11
783.965	514.86
784.274	493.59
784.582	493.3
784.891	507.2
785.199	519.4
785.508	521.1
785.816	526.77
786.124	493.02
786.432	490.75
786.741	531.87
787.049	499.54
787.357	526.2
787.665	510.04
787.973	523.65
788.281	527.9
788.588	509.47
788.896	499.83
789.204	508.05
789.511	529.04
789.819	493.3
790.126	500.68
790.434	500.39
790.741	491.32
791.049	491.32
791.356	517.7
791.663	486.21
791.97	487.34
792.277	505.22
792.584	506.63
792.891	515.14
793.198	500.96
793.505	492.73
793.812	533.86
794.119	516.84
794.425	495.29
794.732	496.42
795.038	510.32
795.345	493.87
795.651	515.99
795.958	489.9
796.264	520.81
796.57	470.32
796.876	491.03
797.183	510.04
797.489	496.42
797.795	496.99
798.101	479.97
798.406	470.6
798.712	487.06
799.018	487.06
799.324	479.12
799.629	477.98
799.935	483.37
800.24	510.04
800.546	491.03
800.851	475.71
801.157	461.8
801.462	495
801.767	453.86
802.072	461.24
802.377	491.88
802.682	476.28
802.987	464.07
803.292	486.78
803.597	490.46
803.902	492.17
804.207	484.79
804.511	483.37
804.816	474.01
805.12	478.26
805.425	494.15
805.729	481.1
806.034	487.63
806.338	489.9
806.642	462.94
806.946	494.15
807.251	483.09
807.555	491.32
807.859	502.38
808.162	475.71
808.466	477.13
808.77	498.41
809.074	477.7
809.378	483.94
809.681	457.55
809.985	472.3
810.288	505.78
810.592	490.75
810.895	453.86
811.198	468.62
811.502	473.44
811.805	493.59
812.108	470.03
812.411	473.16
812.714	469.18
813.017	488.48
813.32	488.76
813.623	476.56
813.926	473.44
814.228	474.01
814.531	474.29
814.833	475.14
815.136	492.17
815.438	504.08
815.741	458.4
816.043	460.95
816.345	466.63
816.648	462.94
816.95	468.62
817.252	456.7
817.554	448.75
817.856	485.07
818.158	448.18
818.46	480.82
818.761	494.72
819.063	460.67
819.365	470.6
819.666	477.7
819.968	480.53
820.269	466.06
820.571	466.91
820.872	481.95
821.173	476.28
821.475	473.44
821.776	488.76
822.077	462.94
822.378	461.8
822.679	453.01
822.98	472.87
823.281	470.6
823.581	496.99
823.882	475.43
824.183	477.41
824.483	484.22
824.784	460.39
825.084	468.05
825.385	447.9
825.685	469.47
825.985	485.93
826.286	482.52
826.586	495
826.886	474.58
827.186	472.3
827.486	456.13
827.786	466.06
828.086	454.99
828.386	489.9
828.685	483.94
828.985	481.67
829.285	474.58
829.584	474.86
829.884	454.42
830.183	435.12
830.482	461.8
830.782	442.22
831.081	479.4
831.38	477.13
831.679	450.45
831.978	462.66
832.277	474.58
832.576	481.67
832.875	469.47
833.174	467.76
833.472	458.11
833.771	464.93
834.07	475.43
834.368	443.35
834.667	467.48
834.965	489.61
835.263	487.34
835.562	480.25
835.86	456.41
836.158	447.9
836.456	495
836.754	453.86
837.052	482.52
837.35	478.83
837.648	462.66
837.946	488.76
838.243	444.77
838.541	460.1
838.839	447.04
839.136	455.84
839.434	472.3
839.731	469.47
840.028	472.59
840.326	418.37
840.623	462.94
840.92	464.93
841.217	480.53
841.514	456.98
841.811	468.62
842.108	464.64
842.405	457.83
842.701	471.45
842.998	453.01
843.295	482.24
843.591	469.47
843.888	473.16
844.184	439.66
844.481	468.33
844.777	470.03
845.073	457.26
845.369	462.94
845.665	468.62
845.962	426.6
846.258	435.69
846.553	447.04
846.849	462.66
847.145	452.15
847.441	465.21
847.737	450.45
848.032	453.86
848.328	462.94
848.623	451.87
848.919	465.21
849.214	459.25
849.509	465.78
849.805	445.06
850.1	444.77
850.395	477.7
850.69	459.25
850.985	462.66
851.28	462.94
851.575	473.44
851.869	453.29
852.164	472.59
852.459	447.9
852.753	470.6
853.048	479.68
853.342	452.15
853.637	467.76
853.931	458.68
854.225	454.42
854.52	479.68
854.814	470.6
855.108	496.99
855.402	492.73
855.696	465.21
855.99	477.7
856.283	477.7
856.577	463.51
856.871	475.71
857.164	463.22
857.458	493.59
857.751	466.63
858.045	454.71
858.338	478.26
858.632	441.65
858.925	467.2
859.218	457.83
859.511	461.8
859.804	483.37
860.097	458.11
860.39	484.22
860.683	473.44
860.976	455.28
861.268	460.39
861.561	446.19
861.854	462.66
862.146	461.24
862.439	474.01
862.731	437.39
863.023	458.11
863.316	465.78
863.608	463.51
863.9	468.9
864.192	464.93
864.484	465.49
864.776	462.09
865.068	471.17
865.36	463.79
865.651	455.84
865.943	464.07
866.235	444.21
866.526	472.59
866.818	450.45
867.109	439.09
867.4	487.06
867.692	473.44
867.983	467.2
868.274	457.55
868.565	419.79
868.856	464.36
869.147	476.56
869.438	458.97
869.729	453.29
870.02	446.19
870.31	467.76
870.601	466.35
870.892	474.86
871.182	467.76
871.473	432.56
871.763	470.6
872.053	454.14
872.343	475.43
872.634	486.78
872.924	444.21
873.214	451.87
873.504	455.28
873.794	458.97
874.084	479.97
874.373	459.53
874.663	449.6
874.953	445.34
875.242	447.9
875.532	461.8
875.821	468.33
876.111	458.97
876.4	478.26
876.689	451.59
876.978	464.36
877.268	455.56
877.557	445.62
877.846	474.86
878.134	457.83
878.423	457.83
878.712	457.83
