Data from FLMS007011_12-37-11-424.txt Node
Date: Thu Apr 21 12:37:11 MDT 2016
User: lab_user
Spectrometer: FLMS00701
Autoset integration time: false
Trigger mode: 0
Integration Time (sec): 5.000000E-3
Scans to average: 10
Electric dark correction enabled: true
Nonlinearity correction enabled: true
Boxcar width: 0
XAxis mode: Wavelengths
Stop averaging: false
Number of Pixels in Spectrum: 2048
>>>>>Begin Spectral Data<<<<<
178.41	23.64
178.791	23.64
179.172	23.64
179.553	-48.08
179.934	-80.67
180.316	-72.09
180.697	-65.52
181.078	-39.5
181.459	-67.23
181.84	-30.07
182.221	-48.36
182.602	15.36
182.983	10.79
183.364	31.64
183.744	51.91
184.125	65.61
184.506	101.57
184.887	103.28
185.268	135.79
185.648	161.17
186.029	156.89
186.41	204.76
186.791	242.64
187.171	262
187.552	278.5
187.932	295.29
188.313	330.56
188.694	350.74
189.074	337.95
189.455	349.61
189.835	378.88
190.216	393.37
190.596	386.27
190.977	425.47
191.357	425.47
191.737	413.82
192.118	417.23
192.498	442.79
192.878	441.37
193.258	462.09
193.639	470.6
194.019	458.97
194.399	434.84
194.779	470.03
195.159	451.87
195.54	447.61
195.92	479.4
196.3	480.53
196.68	478.26
197.06	433.13
197.44	448.46
197.82	471.45
198.2	454.99
198.58	466.35
198.959	459.53
199.339	458.11
199.719	444.77
200.099	436.26
200.479	466.35
200.858	435.12
201.238	441.93
201.618	453.01
201.998	441.65
202.377	456.98
202.757	465.49
203.136	439.38
203.516	427.17
203.896	397.63
204.275	433.98
204.655	430.58
205.034	437.11
205.414	440.23
205.793	458.4
206.172	442.79
206.552	449.31
206.931	431.14
207.31	416.09
207.69	429.44
208.069	443.35
208.448	438.24
208.827	447.04
209.207	469.47
209.586	421.77
209.965	440.8
210.344	449.31
210.723	432.28
211.102	464.93
211.481	442.22
211.86	449.31
212.239	450.45
212.618	471.45
212.997	461.52
213.376	470.32
213.755	451.3
214.134	487.06
214.513	482.52
214.891	471.17
215.27	468.9
215.649	486.49
216.028	493.87
216.406	466.91
216.785	490.46
217.164	492.17
217.542	487.63
217.921	505.78
218.3	522.23
218.678	507.77
219.057	486.21
219.435	487.91
219.814	534.99
220.192	527.9
220.57	500.96
220.949	495.85
221.327	532.16
221.705	510.89
222.084	528.75
222.462	532.44
222.84	551.44
223.218	547.18
223.597	556.25
223.975	547.75
224.353	589.13
224.731	555.4
225.109	575.53
225.487	590.26
225.865	588.28
226.243	616.32
226.621	634.44
226.999	625.66
227.377	630.2
227.755	619.43
228.133	642.94
228.511	673.22
228.889	662.75
229.266	671.24
229.644	703.21
230.022	707.74
230.4	691.05
230.777	720.75
231.155	738.28
231.533	762.59
231.91	760.04
232.288	760.89
232.665	783.22
233.043	799.88
233.42	821.07
233.798	828.97
234.175	841.96
234.553	841.96
234.93	847.61
235.307	856.08
235.685	908.28
236.062	922.94
236.439	926.89
236.816	936.76
237.194	943.81
237.571	956.49
237.948	965.51
238.325	993.97
238.702	1017.91
239.079	1053.95
239.456	1038.75
239.833	1030.58
240.21	1067.18
240.587	1096.72
240.964	1120.07
241.341	1126.26
241.718	1102.63
242.095	1163.09
242.472	1167.86
242.849	1179.95
243.225	1177.14
243.602	1245.11
243.979	1217.31
244.356	1245.39
244.732	1274.58
245.109	1270.09
245.486	1295.63
245.862	1309.93
246.239	1319.75
246.615	1350.04
246.992	1319.19
247.368	1349.47
247.745	1394.6
248.121	1387.87
248.497	1400.76
248.874	1413.93
249.25	1430.73
249.626	1478.32
250.003	1467.97
250.379	1499.31
250.755	1537.63
251.131	1507.7
251.507	1519.17
251.884	1528.4
252.26	1568.66
252.636	1583.19
253.012	1561.95
253.388	1618.68
253.764	1590.46
254.14	1663.36
254.516	1642.98
254.892	1668.38
255.268	1651.91
255.643	1668.94
256.019	1662.52
256.395	1696.01
256.771	1697.69
257.147	1701.59
257.522	1736.18
257.898	1705.5
258.274	1725.58
258.649	1769.08
259.025	1763.23
259.4	1753.19
259.776	1759.05
260.151	1789.15
260.527	1768.25
260.902	1797.51
261.278	1781.63
261.653	1806.99
262.028	1784.41
262.404	1816.46
262.779	1806.99
263.154	1816.46
263.53	1805.31
263.905	1832.06
264.28	1853.22
264.655	1835.68
265.03	1842.64
265.405	1817.29
265.781	1867.98
266.156	1805.03
266.531	1850.72
266.906	1846.82
267.281	1817.57
267.655	1848.21
268.03	1855.17
268.405	1866.59
268.78	1865.75
269.155	1864.64
269.53	1859.9
269.904	1878.28
270.279	1897.76
270.654	1908.34
271.029	1872.43
271.403	1907.22
271.778	1853.5
272.152	1866.87
272.527	1872.99
272.901	1856.01
273.276	1896.93
273.65	1891.08
274.025	1899.71
274.399	1854.34
274.774	1861.85
275.148	1913.07
275.522	1859.9
275.897	1873.27
276.271	1906.39
276.645	1899.15
277.019	1916.68
277.393	1916.96
277.768	1957.01
278.142	1950.06
278.516	1898.87
278.89	1903.05
279.264	1951.17
279.638	1941.44
280.012	1973.42
280.386	1915.85
280.76	1912.79
281.133	1921.13
281.507	1921.97
281.881	1956.73
282.255	1910
282.629	1908.89
283.002	1917.24
283.376	1939.77
283.75	1957.01
284.123	1923.92
284.497	1937.55
284.87	1947.84
285.244	1992.04
285.618	1980.37
285.991	1952.56
286.364	1975.92
286.738	1955.07
287.111	1968.69
287.485	1976.47
287.858	1990.09
288.231	1940.6
288.605	1950.62
288.978	1997.88
289.351	1991.48
289.724	1993.71
290.097	1965.91
290.47	1972.03
290.843	2007.88
291.217	1964.8
291.59	1946.72
291.963	1967.3
292.336	1973.69
292.708	1965.35
293.081	1964.52
293.454	1953.95
293.827	1948.67
294.2	1931.15
294.573	1925.31
294.945	1936.15
295.318	1954.23
295.691	1901.94
296.064	1933.09
296.436	1958.96
296.809	1908.89
297.181	1915.29
297.554	1925.58
297.926	1926.14
298.299	1912.23
298.671	1879.11
299.044	1907.22
299.416	1915.29
299.788	1907.78
300.161	1906.94
300.533	1906.39
300.905	1940.05
301.278	1918.07
301.65	1918.91
302.022	1918.63
302.394	1886.91
302.766	1900.54
303.138	1877.17
303.51	1892.75
303.882	1926.98
304.254	1922.25
304.626	1896.65
304.998	1922.8
305.37	1921.41
305.742	1920.3
306.114	1967.02
306.485	1911.12
306.857	1931.15
307.229	1929.76
307.601	1933.93
307.972	1898.32
308.344	1867.14
308.716	1918.07
309.087	1890.8
309.459	1917.52
309.83	1904.44
310.202	1901.66
310.573	1910.28
310.945	1916.4
311.316	1897.76
311.687	1923.92
312.059	1894.42
312.43	1918.07
312.801	1899.15
313.172	1918.35
313.544	1890.53
313.915	1938.94
314.286	1913.9
314.657	1916.68
315.028	1875.49
315.399	1920.86
315.77	1918.63
316.141	1903.05
316.512	1928.37
316.883	1854.89
317.254	1892.75
317.625	1913.9
317.996	1897.2
318.366	1900.54
318.737	1875.22
319.108	1888.86
319.478	1904.16
319.849	1869.93
320.22	1848.77
320.59	1891.08
320.961	1885.52
321.331	1881.34
321.702	1900.54
322.072	1861.58
322.443	1876.33
322.813	1851.27
323.184	1875.22
323.554	1848.21
323.924	1790.27
324.295	1849.88
324.665	1854.89
325.035	1801.41
325.405	1824.81
325.775	1862.41
326.145	1843.48
326.515	1853.5
326.886	1809.21
327.256	1800.58
327.626	1738.97
327.995	1738.41
328.365	1754.86
328.735	1760.72
329.105	1799.46
329.475	1840.97
329.845	1834.56
330.215	1831.78
330.584	1842.36
330.954	1849.88
331.324	1874.94
331.693	1881.06
332.063	1873.27
332.432	1871.04
332.802	1918.07
333.171	1909.73
333.541	1870.21
333.91	1878.28
334.28	1888.86
334.649	1873.27
335.018	1842.08
335.388	1795
335.757	1833.17
336.126	1810.61
336.495	1770.48
336.865	1788.32
337.234	1755.14
337.603	1781.35
337.972	1775.22
338.341	1816.18
338.71	1809.21
339.079	1774.1
339.448	1789.15
339.817	1815.9
340.186	1784.41
340.554	1773.82
340.923	1774.1
341.292	1771.87
341.661	1767.41
342.029	1781.9
342.398	1775.22
342.767	1764.07
343.135	1795.56
343.504	1789.71
343.872	1769.92
344.241	1779.12
344.609	1749.29
344.978	1790.82
345.346	1763.51
345.715	1779.12
346.083	1763.51
346.451	1751.8
346.82	1783.86
347.188	1797.79
347.556	1767.41
347.924	1757.65
348.292	1759.05
348.66	1738.97
349.028	1786.64
349.396	1734.51
349.764	1743.99
350.132	1778.84
350.5	1732.56
350.868	1759.33
351.236	1781.35
351.604	1754.86
351.972	1732.83
352.34	1733.95
352.707	1726.14
353.075	1751.8
353.443	1700.2
353.81	1714.98
354.178	1718.05
354.545	1717.49
354.913	1725.03
355.28	1734.51
355.648	1719.73
356.015	1735.9
356.383	1727.26
356.75	1699.08
357.117	1678.43
357.485	1702.43
357.852	1687.92
358.219	1686.8
358.586	1686.52
358.954	1661.96
359.321	1690.43
359.688	1698.52
360.055	1683.17
360.422	1671.17
360.789	1675.36
361.156	1703.54
361.523	1652.47
361.89	1670.06
362.256	1688.76
362.623	1671.73
362.99	1662.24
363.357	1672.01
363.724	1672.85
364.09	1657.49
364.457	1644.37
364.823	1678.43
365.19	1645.49
365.557	1654.7
365.923	1643.81
366.29	1633.2
366.656	1627.89
367.022	1637.39
367.389	1669.22
367.755	1634.6
368.121	1637.67
368.488	1606.67
368.854	1640.18
369.22	1637.95
369.586	1649.12
369.952	1621.19
370.318	1632.92
370.684	1609.46
371.051	1598.56
371.416	1583.47
371.782	1574.53
372.148	1562.51
372.514	1575.93
372.88	1572.85
373.246	1601.08
373.612	1577.05
373.977	1574.53
374.343	1555.52
374.709	1579
375.074	1569.78
375.44	1572.02
375.806	1568.94
376.171	1594.93
376.537	1533.71
376.902	1583.47
377.268	1612.25
377.633	1568.94
377.998	1617.56
378.364	1630.97
378.729	1586.27
379.094	1588.22
379.459	1597.17
379.825	1572.57
380.19	1578.16
380.555	1515.53
380.92	1565.03
381.285	1565.59
381.65	1566.7
382.015	1537.07
382.38	1543.5
382.745	1539.59
383.11	1542.94
383.474	1567.54
383.839	1478.32
384.204	1510.78
384.569	1497.63
384.933	1491.19
385.298	1486.16
385.663	1486.72
386.027	1499.03
386.392	1509.94
386.756	1511.34
387.121	1500.43
387.485	1520.57
387.849	1515.53
388.214	1490.08
388.578	1534.27
388.942	1506.58
389.307	1498.19
389.671	1481.96
390.035	1505.74
390.399	1515.53
390.763	1502.11
391.127	1530.08
391.492	1554.96
391.856	1555.24
392.219	1585.43
392.583	1598
392.947	1554.4
393.311	1499.59
393.675	1492.03
394.039	1449.77
394.403	1506.58
394.766	1481.68
395.13	1463.49
395.494	1481.12
395.857	1464.61
396.221	1471.89
396.584	1500.99
396.948	1534.83
397.311	1531.2
397.675	1560.83
398.038	1570.9
398.401	1554.96
398.765	1543.78
399.128	1485.32
399.491	1444.45
399.854	1482.24
400.218	1453.13
400.581	1446.97
400.944	1453.97
401.307	1439.41
401.67	1410.29
402.033	1393.76
402.396	1434.93
402.759	1427.65
403.122	1409.73
403.485	1419.81
403.847	1446.13
404.21	1388.71
404.573	1420.93
404.936	1476.36
405.298	1447.53
405.661	1415.05
406.023	1390.67
406.386	1376.66
406.749	1363.77
407.111	1394.32
407.473	1369.94
407.836	1380.31
408.198	1403.56
408.561	1428.21
408.923	1407.48
409.285	1368.82
409.647	1401.32
410.009	1406.92
410.372	1361.25
410.734	1356.2
411.096	1381.71
411.458	1329.29
411.82	1380.31
412.182	1376.66
412.544	1376.38
412.906	1385.35
413.267	1389.83
413.629	1372.74
413.991	1385.35
414.353	1375.54
414.714	1335.18
415.076	1334.61
415.438	1350.04
415.799	1354.8
416.161	1352
416.522	1318.07
416.884	1336.86
417.245	1296.75
417.607	1318.63
417.968	1335.46
418.329	1294.23
418.691	1325.08
419.052	1310.22
419.413	1320.31
419.774	1325.36
420.135	1359.57
420.497	1404.4
420.858	1416.73
421.219	1439.41
421.58	1405.8
421.941	1422.89
422.302	1372.74
422.662	1356.76
423.023	1336.3
423.384	1328.45
423.745	1321.43
424.106	1348.35
424.466	1355.08
424.827	1373.58
425.187	1314.42
425.548	1301.8
425.909	1275.71
426.269	1280.76
426.63	1312.74
426.99	1315.83
427.35	1309.93
427.711	1306.57
428.071	1324.8
428.431	1293.94
428.792	1381.43
429.152	1408.04
429.512	1484.76
429.872	1466.01
430.232	1455.93
430.592	1401.88
430.952	1349.19
431.312	1324.24
431.672	1306.85
432.032	1264.48
432.392	1271.22
432.752	1331.53
433.111	1417.01
433.471	1440.25
433.831	1372.74
434.19	1319.19
434.55	1317.79
434.91	1285.25
435.269	1329.29
435.629	1337.14
435.988	1362.37
436.348	1346.95
436.707	1304.32
437.066	1304.89
437.426	1285.25
437.785	1301.8
438.144	1341.34
438.503	1257.46
438.862	1289.74
439.222	1296.19
439.581	1275.71
439.94	1274.3
440.299	1293.1
440.658	1349.47
441.017	1380.31
441.376	1357.6
441.734	1355.92
442.093	1344.71
442.452	1401.88
442.811	1367.98
443.169	1366.29
443.528	1354.8
443.887	1361.53
444.245	1312.18
444.604	1328.45
444.962	1337.98
445.321	1342.75
445.679	1314.42
446.038	1338.26
446.396	1298.15
446.754	1293.1
447.112	1293.66
447.471	1279.63
447.829	1213.94
448.187	1245.95
448.545	1257.18
448.903	1254.09
449.261	1276.55
449.619	1265.6
449.977	1233.04
450.335	1237.81
450.693	1226.86
451.051	1195.96
451.409	1209.17
451.766	1212.26
452.124	1202.71
452.482	1172.64
452.839	1167.58
453.197	1165.62
453.555	1146.78
453.912	1150.44
454.27	1136.38
454.627	1184.44
454.984	1158.31
455.342	1183.88
455.699	1185.01
456.056	1123.16
456.414	1164.77
456.771	1174.05
457.128	1176.86
457.485	1212.54
457.842	1205.51
458.199	1211.41
458.556	1188.38
458.913	1210.85
459.27	1229.39
459.627	1234.44
459.984	1188.38
460.341	1182.2
460.697	1186.41
461.054	1189.5
461.411	1122.04
461.767	1099.26
462.124	1089.41
462.481	1105.73
462.837	1133.29
463.194	1136.94
463.55	1149.59
463.907	1203.27
464.263	1179.95
464.619	1227.98
464.976	1235.85
465.332	1285.53
465.688	1233.88
466.044	1233.04
466.4	1186.69
466.756	1153.81
467.112	1158.03
467.468	1156.9
467.824	1136.1
468.18	1138.91
468.536	1116.13
468.892	1090.53
469.248	1111.91
469.604	1092.79
469.959	1092.22
470.315	1048.88
470.671	1080.69
471.026	1090.25
471.382	1098.41
471.737	1128.51
472.093	1118.95
472.448	1115.57
472.804	1188.94
473.159	1177.7
473.514	1158.31
473.87	1205.8
474.225	1214.78
474.58	1250.44
474.935	1305.45
475.29	1245.11
475.645	1244.27
476	1220.4
476.355	1225.17
476.71	1217.59
477.065	1238.93
477.42	1274.58
477.775	1270.93
478.13	1290.58
478.485	1271.22
478.839	1284.12
479.194	1362.37
479.549	1349.47
479.903	1374.7
480.258	1352.56
480.612	1370.5
480.967	1429.33
481.321	1385.35
481.675	1408.88
482.03	1397.12
482.384	1357.88
482.738	1353.68
483.093	1364.61
483.447	1385.35
483.801	1422.61
484.155	1458.45
484.509	1596.61
484.863	2530.44
485.217	3431.04
485.571	3857.23
485.925	3273.17
486.279	2569.62
486.632	2111.18
486.986	1756.54
487.34	1563.63
487.694	1440.53
488.047	1432.13
488.401	1398.52
488.754	1374.98
489.108	1349.76
489.461	1354.8
489.815	1348.63
490.168	1338.82
490.522	1375.54
490.875	1355.08
491.228	1347.23
491.581	1318.07
491.935	1320.03
492.288	1316.11
492.641	1337.42
492.994	1339.1
493.347	1358.73
493.7	1357.88
494.053	1364.61
494.406	1355.36
494.759	1330.41
495.111	1323.96
495.464	1397.68
495.817	1408.6
496.169	1460.41
496.522	1406.08
496.875	1295.07
497.227	1281.6
497.58	1263.64
497.932	1267.29
498.285	1307.97
498.637	1358.73
498.989	1333.77
499.342	1346.95
499.694	1316.67
500.046	1319.47
500.398	1292.54
500.751	1310.22
501.103	1357.32
501.455	1357.04
501.807	1338.54
502.159	1395.44
502.511	1376.38
502.862	1373.3
503.214	1348.07
503.566	1324.52
503.918	1281.32
504.27	1279.92
504.621	1254.37
504.973	1241.74
505.324	1260.83
505.676	1274.02
506.027	1305.17
506.379	1256.62
506.73	1231.91
507.082	1222.93
507.433	1237.81
507.784	1234.72
508.136	1240.62
508.487	1232.48
508.838	1244.27
509.189	1218.72
509.54	1244.83
509.891	1226.58
510.242	1240.34
510.593	1194.56
510.944	1209.45
511.295	1193.15
511.646	1177.7
511.996	1173.48
512.347	1146.78
512.698	1143.13
513.049	1157.46
513.399	1145.1
513.75	1141.72
514.1	1126.26
514.451	1125.41
514.801	1096.44
515.152	1128.51
515.502	1122.04
515.852	1152.69
516.202	1158.31
516.553	1161.96
516.903	1136.66
517.253	1141.16
517.603	1090.82
517.953	1097.57
518.303	1083.5
518.653	1142.57
519.003	1143.41
519.353	1093.91
519.703	1046.07
520.052	1075.06
520.402	1068.87
520.752	1039.59
521.102	1062.39
521.451	1061.55
521.801	1032.27
522.15	1064.65
522.5	1040.16
522.849	1066.9
523.199	1071.96
523.548	1095.6
523.897	1093.35
524.246	1069.71
524.596	1058.17
524.945	1059.86
525.294	1022.7
525.643	1040.72
525.992	1028.89
526.341	1038.19
526.69	1069.43
527.039	1051.42
527.388	1021.01
527.737	1045.22
528.086	1081.81
528.434	1138.07
528.783	1133.01
529.132	1091.1
529.48	1087.72
529.829	1094.47
530.177	1043.82
530.526	1030.02
530.874	1091.66
531.223	1057.61
531.571	1050.57
531.919	1075.9
532.268	1075.62
532.616	1133.57
532.964	1140.32
533.312	1147.34
533.66	1140.03
534.008	1138.07
534.356	1164.77
534.704	1162.52
535.052	1162.24
535.4	1104.6
535.748	1102.91
536.095	1046.07
536.443	1048.32
536.791	994.53
537.139	1072.81
537.486	1084.63
537.834	1099.54
538.181	1112.76
538.529	1111.35
538.876	1131.88
539.223	1161.12
539.571	1113.6
539.918	1098.97
540.265	1112.2
540.613	1088.57
540.96	1136.38
541.307	1074.5
541.654	1107.98
542.001	1126.54
542.348	1133.85
542.695	1100.66
543.042	1105.16
543.388	1141.16
543.735	1103.76
544.082	1140.03
544.429	1142
544.775	1122.88
545.122	1108.82
545.469	1079.56
545.815	1069.71
546.162	1060.42
546.508	1094.75
546.854	1124.29
547.201	1167.02
547.547	1175.73
547.893	1196.81
548.24	1152.69
548.586	1099.26
548.932	1056.77
549.278	1055.36
549.624	1028.33
549.97	1008.05
550.316	997.63
550.662	990.31
551.008	1012.84
551.353	1066.05
551.699	1128.23
552.045	1142
552.391	1112.48
552.736	1095.88
553.082	1090.53
553.427	1069.43
553.773	1030.87
554.118	1013.97
554.464	1061.83
554.809	1045.79
555.154	1089.41
555.5	1100.66
555.845	1098.69
556.19	1061.27
556.535	1021.85
556.88	1015.09
557.225	1015.66
557.57	1031.15
557.915	1011.43
558.26	1014.81
558.605	957.34
558.95	959.59
559.295	1019.6
559.639	1073.37
559.984	1078.44
560.329	1132.44
560.673	1168.99
561.018	1152.69
561.362	1140.88
561.707	1098.41
562.051	1054.8
562.395	1064.36
562.74	1083.78
563.084	1091.1
563.428	1152.4
563.772	1162.52
564.117	1147.34
564.461	1148.75
564.805	1165.9
565.149	1147.06
565.493	1133.57
565.836	1160.56
566.18	1173.2
566.524	1254.09
566.868	1326.2
567.212	1375.82
567.555	1397.12
567.899	1473.56
568.242	1546.58
568.586	1635.99
568.929	1834.01
569.273	2036.22
569.616	2111.46
569.96	2174.15
570.303	2257.28
570.646	2330.09
570.989	2400.34
571.333	2490.13
571.676	2380.16
572.019	2230.41
572.362	2162.5
572.705	2370.48
573.048	2539.27
573.391	2782
573.733	2845.25
574.076	2944.69
574.419	2963.63
574.762	2768.52
575.104	2549.2
575.447	2426.05
575.789	2544.79
576.132	2728.89
576.474	2847.45
576.817	3142.65
577.159	3546.65
577.501	3740.42
577.844	3618.28
578.186	3109.78
578.528	2765.5
578.87	2619.25
579.212	2583.13
579.554	2738.25
579.896	2722.84
580.238	2907.9
580.58	3416.57
580.922	3951.37
581.264	4399.46
581.606	4175.57
581.947	3827.09
582.289	3393.1
582.631	2799.61
582.972	2450.91
583.314	2341.99
583.655	2284.97
583.997	2468.87
584.338	2783.65
584.679	3048.12
585.021	3230.78
585.362	2996.56
585.703	2711.55
586.044	2524.09
586.385	2596.37
586.726	2741
587.067	2777.6
587.408	2677.67
587.749	2479.09
588.09	2292.45
588.431	2142.25
588.772	1974.53
589.113	1855.73
589.453	1929.2
589.794	1912.23
590.134	1764.34
590.475	1690.43
590.815	1670.89
591.156	1693.78
591.496	1707.73
591.837	1906.11
592.177	2243.43
592.517	2576.79
592.857	2554.45
593.198	2448.98
593.538	2162.5
593.878	2006.21
594.218	1920.58
594.558	1995.93
594.898	1986.76
595.237	1955.9
595.577	1783.3
595.917	1633.48
596.257	1597.73
596.596	1635.71
596.936	1676.48
597.276	1682.34
597.615	1655.54
597.955	1849.88
598.294	2074.26
598.633	2187.73
598.973	2181.36
599.312	2130.33
599.651	2088.42
599.991	2076.76
600.33	2010.94
600.669	1965.63
601.008	1864.64
601.347	1766.57
601.686	1767.13
602.025	1772.15
602.364	1837.35
602.702	1886.63
603.041	1939.77
603.38	1876.33
603.719	1809.77
604.057	1684.29
604.396	1634.32
604.734	1681.5
605.073	1819.8
605.411	1873.55
605.75	1844.59
606.088	1794.17
606.426	1723.35
606.764	1754.31
607.103	1739.25
607.441	1660.29
607.779	1638.23
608.117	1603.03
608.455	1530.64
608.793	1474.96
609.131	1532.87
609.469	1619.24
609.806	1640.46
610.144	1563.63
610.482	1518.61
610.819	1466.57
611.157	1444.73
611.495	1434.93
611.832	1374.14
612.17	1379.19
612.507	1421.21
612.844	1407.2
613.182	1370.5
613.519	1385.91
613.856	1373.86
614.193	1432.97
614.53	1413.65
614.867	1452.57
615.205	1438.01
615.541	1388.71
615.878	1288.89
616.215	1267.57
616.552	1227.42
616.889	1259.99
617.226	1277.67
617.562	1285.53
617.899	1214.22
618.235	1150.16
618.572	1072.81
618.908	1081.25
619.245	1104.04
619.581	1133.85
619.918	1126.26
620.254	1013.97
620.59	958.46
620.926	975.65
621.262	981.01
621.599	1023.26
621.935	1042.97
622.271	1067.18
622.606	1095.04
622.942	1092.5
623.278	1082.66
623.614	1066.34
623.95	1088.57
624.285	1089.13
624.621	1090.53
624.957	1026.64
625.292	1017.63
625.628	998.76
625.963	959.03
626.299	950.01
626.634	958.18
626.969	929.14
627.304	918.15
627.64	859.46
627.975	819.66
628.31	829.82
628.645	886.84
628.98	886.55
629.315	904.89
629.65	892.76
629.985	862.57
630.319	830.1
630.654	848.45
630.989	812.59
631.323	845.35
631.658	828.13
631.993	769.09
632.327	740.82
632.662	774.17
632.996	752.69
633.33	777
633.665	746.48
633.999	714.81
634.333	761.17
634.667	720.18
635.001	750.43
635.335	745.34
635.669	767.11
636.003	777.28
636.337	795.93
636.671	769.65
637.005	745.06
637.339	711.13
637.672	732.06
638.006	733.19
638.339	733.19
638.673	747.04
639.006	704.62
639.34	711.98
639.673	674.07
640.007	717.92
640.34	702.93
640.673	687.65
641.006	697.84
641.34	688.78
641.673	662.18
642.006	678.31
642.339	679.16
642.672	666.15
643.004	668.41
643.337	623.4
643.67	667.56
644.003	646.62
644.336	616.89
644.668	659.92
645.001	656.24
645.333	651.43
645.666	631.61
645.998	652.84
646.331	628.5
646.663	593.94
646.995	632.18
647.327	676.62
647.66	689.35
647.992	741.95
648.324	715.66
648.656	719.9
648.988	721.59
649.32	710.56
649.652	687.65
649.983	663.88
650.315	636.42
650.647	630.76
650.979	637.56
651.31	682.84
651.642	681.14
651.973	710.56
652.305	697.27
652.636	706.32
652.967	704.06
653.299	672.37
653.63	670.39
653.961	687.93
654.292	760.33
654.623	1753.19
654.955	7220.19
655.286	13122.85
655.616	16664.12
655.947	14220.24
656.278	9598.09
656.609	6063.6
656.94	3958.69
657.27	2840.03
657.601	2176.92
657.932	1617.84
658.262	1176.86
658.593	868.49
658.923	766.26
659.254	657.09
659.584	623.4
659.914	616.6
660.244	607.54
660.575	610.09
660.905	592.24
661.235	594.51
661.565	599.61
661.895	582.61
662.225	591.39
662.555	580.91
662.884	577.79
663.214	597.34
663.544	607.82
663.873	605.56
664.203	602.72
664.533	601.02
664.862	611.79
665.192	625.66
665.521	577.51
665.85	618.58
666.18	586.58
666.509	575.24
666.838	595.08
667.167	583.74
667.496	600.17
667.825	589.98
668.154	573.83
668.483	574.96
668.812	579.21
669.141	594.23
669.47	589.41
669.798	593.66
670.127	606.41
670.456	604.14
670.784	647.75
671.113	645.77
671.441	690.76
671.77	710.28
672.098	680.86
672.426	698.12
672.755	642.65
673.083	651.99
673.411	633.31
673.739	610.65
674.067	601.87
674.395	604.99
674.723	606.12
675.051	599.89
675.379	592.81
675.706	628.5
676.034	615.19
676.362	601.02
676.689	609.81
677.017	616.04
677.344	639.82
677.672	656.52
677.999	621.7
678.327	630.76
678.654	639.54
678.981	700.95
679.308	708.02
679.636	676.33
679.963	680.01
680.29	640.67
680.617	650.01
680.944	648.31
681.271	629.63
681.597	637.84
681.924	608.39
682.251	611.5
682.578	578.08
682.904	628.5
683.231	633.88
683.557	640.95
683.884	670.11
684.21	695.86
684.536	688.5
684.863	703.21
685.189	708.58
685.515	718.2
685.841	673.5
686.167	670.67
686.493	660.77
686.819	686.52
687.145	661.05
687.471	643.5
687.797	646.05
688.123	628.21
688.448	617.74
688.774	632.46
689.1	616.04
689.425	632.74
689.751	636.42
690.076	628.5
690.402	614.34
690.727	662.18
691.052	673.79
691.377	667.56
691.703	628.78
692.028	634.16
692.353	647.75
692.678	629.06
693.003	660.2
693.328	604.42
693.652	621.7
693.977	591.39
694.302	595.36
694.627	604.14
694.951	609.81
695.276	618.02
695.6	591.11
695.925	615.75
696.249	616.04
696.574	667.56
696.898	668.98
697.222	649.73
697.546	646.05
697.871	622.83
698.195	584.03
698.519	631.61
698.843	594.23
699.167	612.35
699.491	563.06
699.814	571.84
700.138	570.43
700.462	568.44
700.786	587.43
701.109	552.57
701.433	569.29
701.756	592.53
702.08	600.74
702.403	605.56
702.726	594.79
703.05	591.68
703.373	580.91
703.696	574.39
704.019	542.65
704.342	531.59
704.665	553.99
704.988	556.54
705.311	547.18
705.634	568.44
705.957	601.31
706.28	645.77
706.602	642.94
706.925	648.31
707.247	620.85
707.57	647.75
707.892	594.51
708.215	601.87
708.537	600.74
708.859	592.53
709.182	598.19
709.504	597.63
709.826	601.02
710.148	599.32
710.47	599.04
710.792	598.19
711.114	580.91
711.436	547.18
711.758	563.62
712.079	541.23
712.401	603.57
712.723	588.84
713.044	620.85
713.366	607.26
713.687	627.93
714.009	590.83
714.33	634.44
714.652	613.2
714.973	581.19
715.294	582.61
715.615	585.16
715.936	568.44
716.257	552
716.578	541.23
716.899	573.26
717.22	551.15
717.541	561.07
717.862	576.66
718.182	557.67
718.503	588.84
718.824	560.22
719.144	564.19
719.465	606.41
719.785	553.14
720.105	538.39
720.426	568.44
720.746	581.76
721.066	549.45
721.386	584.59
721.706	572.69
722.026	567.59
722.346	536.69
722.666	528.19
722.986	559.37
723.306	552.85
723.626	564.47
723.946	555.97
724.265	569.01
724.585	560.79
724.904	560.22
725.224	580.91
725.543	611.79
725.863	573.26
726.182	592.81
726.501	567.59
726.82	587.71
727.14	565.61
727.459	573.83
727.778	566.74
728.097	571.28
728.416	559.94
728.734	603.86
729.053	580.63
729.372	584.31
729.691	593.38
730.009	605.84
730.328	650.01
730.647	626.51
730.965	636.14
731.283	631.33
731.602	607.54
731.92	607.54
732.238	627.65
732.557	599.89
732.875	646.9
733.193	640.1
733.511	633.88
733.829	671.52
734.147	646.33
734.465	596.49
734.782	601.59
735.1	623.68
735.418	619.43
735.735	626.23
736.053	625.66
736.371	649.16
736.688	617.74
737.005	583.74
737.323	590.26
737.64	552
737.957	595.08
738.274	607.26
738.592	631.89
738.909	593.94
739.226	597.34
739.543	579.78
739.86	572.41
740.176	535.84
740.493	559.09
740.81	546.9
741.127	551.72
741.443	573.26
741.76	557.1
742.076	572.69
742.393	565.61
742.709	557.67
743.025	538.96
743.342	527.62
743.658	535.28
743.974	549.45
744.29	543.78
744.606	557.39
744.922	567.02
745.238	535.84
745.554	555.69
745.87	536.98
746.186	548.03
746.501	540.38
746.817	546.05
747.132	544.63
747.448	536.13
747.763	515.99
748.079	537.54
748.394	563.06
748.71	554.55
749.025	586.86
749.34	580.91
749.655	589.69
749.97	586.01
750.285	569.29
750.6	589.41
750.915	591.68
751.23	574.68
751.545	569.86
751.859	586.29
752.174	552.85
752.489	583.46
752.803	572.13
753.118	603.01
753.432	577.79
753.747	578.36
754.061	569.86
754.375	592.24
754.689	597.63
755.004	610.94
755.318	606.41
755.632	611.22
755.946	619.72
756.26	626.23
756.573	669.54
756.887	680.58
757.201	677.18
757.515	664.17
757.828	628.21
758.142	631.33
758.455	636.99
758.769	626.8
759.082	694.72
759.396	661.05
759.709	685.39
760.022	665.3
760.335	670.11
760.648	682.56
760.962	638.12
761.275	593.38
761.587	603.86
761.9	610.37
762.213	587.43
762.526	610.65
762.839	600.17
763.151	591.39
763.464	636.71
763.776	648.31
764.089	611.22
764.401	652.28
764.714	653.98
765.026	611.22
765.338	589.69
765.65	578.08
765.962	597.06
766.275	571.84
766.587	569.01
766.898	564.19
767.21	594.79
767.522	568.72
767.834	614.05
768.146	595.64
768.457	572.13
768.769	564.76
769.08	582.61
769.392	595.93
769.703	590.26
770.015	590.83
770.326	604.42
770.637	593.66
770.948	584.03
771.26	584.88
771.571	591.39
771.882	569.86
772.193	574.11
772.504	585.73
772.814	575.53
773.125	558.24
773.436	549.45
773.747	527.9
774.057	544.63
774.368	523.08
774.678	550.59
774.989	500.39
775.299	538.68
775.609	528.47
775.919	543.78
776.23	522.23
776.54	506.92
776.85	537.83
777.16	520.53
777.47	524.5
777.78	535.84
778.089	534.99
778.399	546.05
778.709	549.45
779.019	543.78
779.328	526.77
779.638	523.93
779.947	551.15
780.257	572.69
780.566	580.63
780.875	568.72
781.185	575.24
781.494	556.82
781.803	541.51
782.112	570.14
782.421	538.68
782.73	557.1
783.039	543.21
783.348	534.14
783.656	536.69
783.965	493.87
784.274	512.02
784.582	538.96
784.891	512.31
785.199	513.72
785.508	529.04
785.816	524.22
786.124	525.64
786.432	557.95
786.741	535.28
787.049	533.01
787.357	546.05
787.665	532.44
787.973	536.13
788.281	525.07
788.588	546.62
788.896	511.46
789.204	531.31
789.511	494.72
789.819	488.48
790.126	505.78
790.434	533.01
790.741	480.82
791.049	492.17
791.356	497.84
791.663	503.23
791.97	478.55
792.277	488.48
792.584	508.05
792.891	510.32
793.198	509.75
793.505	525.35
793.812	549.45
794.119	548.32
794.425	530.74
794.732	512.87
795.038	513.72
795.345	536.41
795.651	494.72
795.958	505.22
796.264	490.75
796.57	520.81
796.876	527.34
797.183	506.07
797.489	518.55
797.795	523.37
798.101	498.41
798.406	494.15
798.712	484.79
799.018	494.72
799.324	486.21
799.629	488.76
799.935	482.8
800.24	500.96
800.546	493.3
800.851	497.84
801.157	496.42
801.462	515.71
801.767	493.3
802.072	503.51
802.377	468.9
802.682	476.28
802.987	471.45
803.292	495.57
803.597	504.08
803.902	505.78
804.207	489.33
804.511	495.57
804.816	520.81
805.12	470.03
805.425	515.99
805.729	499.83
806.034	514.29
806.338	513.72
806.642	522.8
806.946	514.86
807.251	497.84
807.555	514.01
807.859	518.26
808.162	494.15
808.466	492.17
808.77	505.5
809.074	475.99
809.378	520.53
809.681	483.94
809.985	480.82
810.288	500.68
810.592	495.85
810.895	487.63
811.198	464.93
811.502	502.66
811.805	483.66
812.108	463.22
812.411	486.49
812.714	500.68
813.017	514.29
813.32	494.72
813.623	487.63
813.926	494.44
814.228	506.63
814.531	502.95
814.833	495.29
815.136	509.47
815.438	485.07
815.741	477.98
816.043	468.33
816.345	497.27
816.648	471.45
816.95	476.85
817.252	466.06
817.554	500.68
817.856	472.3
818.158	458.68
818.46	484.22
818.761	453.01
819.063	473.72
819.365	474.58
819.666	491.03
819.968	484.51
820.269	510.89
820.571	492.73
820.872	505.22
821.173	477.98
821.475	483.37
821.776	480.25
822.077	475.43
822.378	492.45
822.679	490.18
822.98	475.43
823.281	499.26
823.581	463.22
823.882	467.2
824.183	466.35
824.483	467.76
824.784	479.12
825.084	498.41
825.385	494.44
825.685	471.45
825.985	485.93
826.286	494.44
826.586	472.3
826.886	468.9
827.186	492.73
827.486	483.94
827.786	487.06
828.086	486.78
828.386	455.84
828.685	481.1
828.985	470.6
829.285	468.62
829.584	471.17
829.884	475.71
830.183	489.61
830.482	479.4
830.782	457.55
831.081	475.14
831.38	476.85
831.679	481.1
831.978	451.87
832.277	461.8
832.576	468.9
832.875	470.03
833.174	462.94
833.472	490.46
833.771	451.3
834.07	475.43
834.368	471.74
834.667	486.21
834.965	466.35
835.263	473.16
835.562	464.64
835.86	476.56
836.158	499.83
836.456	458.11
836.754	461.52
837.052	494.15
837.35	491.6
837.648	459.53
837.946	445.34
838.243	471.45
838.541	489.9
838.839	481.67
839.136	462.37
839.434	457.55
839.731	480.82
840.028	492.73
840.326	483.09
840.623	480.82
840.92	460.39
841.217	444.21
841.514	426.32
841.811	475.43
842.108	459.25
842.405	460.95
842.701	479.12
842.998	478.83
843.295	470.32
843.591	458.68
843.888	462.09
844.184	459.53
844.481	478.55
844.777	470.32
845.073	478.26
845.369	454.71
845.665	459.82
845.962	479.12
846.258	461.24
846.553	435.12
846.849	451.87
847.145	453.57
847.441	472.3
847.737	454.99
848.032	475.14
848.328	457.83
848.623	485.64
848.919	480.82
849.214	469.18
849.509	468.62
849.805	453.29
850.1	452.44
850.395	460.67
850.69	450.17
850.985	455.84
851.28	465.78
851.575	452.44
851.869	468.9
852.164	460.67
852.459	467.48
852.753	465.78
853.048	470.32
853.342	474.58
853.637	485.07
853.931	487.34
854.225	466.91
854.52	460.95
854.814	457.83
855.108	459.25
855.402	443.92
855.696	484.22
855.99	442.22
856.283	483.37
856.577	465.21
856.871	497.84
857.164	481.1
857.458	456.41
857.751	474.01
858.045	487.06
858.338	458.11
858.632	446.76
858.925	464.07
859.218	458.4
859.511	459.82
859.804	471.45
860.097	476.85
860.39	471.17
860.683	450.45
860.976	448.18
861.268	460.95
861.561	457.26
861.854	478.55
862.146	478.83
862.439	459.25
862.731	448.18
863.023	452.15
863.316	459.25
863.608	455.84
863.9	468.62
864.192	486.49
864.484	453.29
864.776	473.44
865.068	478.55
865.36	461.24
865.651	442.5
865.943	455.28
866.235	460.39
866.526	464.64
866.818	472.87
867.109	455.28
867.4	468.62
867.692	429.73
867.983	470.6
868.274	460.1
868.565	462.94
868.856	468.62
869.147	461.24
869.438	462.66
869.729	456.41
870.02	458.4
870.31	475.71
870.601	458.68
870.892	464.64
871.182	460.1
871.473	459.25
871.763	432
872.053	451.59
872.343	465.49
872.634	466.91
872.924	461.52
873.214	458.11
873.504	468.33
873.794	467.2
874.084	465.49
874.373	460.39
874.663	472.87
874.953	433.42
875.242	485.64
875.532	462.66
875.821	445.34
876.111	441.93
876.4	484.79
876.689	471.17
876.978	446.19
877.268	462.66
877.557	456.13
877.846	477.98
878.134	451.02
878.423	451.02
878.712	451.02
