Data from FLMS007011_12-36-52-772.txt Node
Date: Thu Apr 21 12:36:52 MDT 2016
User: lab_user
Spectrometer: FLMS00701
Autoset integration time: false
Trigger mode: 0
Integration Time (sec): 5.000000E-3
Scans to average: 10
Electric dark correction enabled: true
Nonlinearity correction enabled: true
Boxcar width: 0
XAxis mode: Wavelengths
Stop averaging: false
Number of Pixels in Spectrum: 2048
>>>>>Begin Spectral Data<<<<<
178.41	26.74
178.791	26.74
179.172	26.74
179.553	-69.57
179.934	-70.43
180.316	-71.86
180.697	-62.99
181.078	-44.41
181.459	-46.12
181.84	-22.97
182.221	-46.98
182.602	-10.4
182.983	21.31
183.364	17.03
183.744	71.85
184.125	59.29
184.506	92.68
184.887	102.95
185.268	142.3
185.648	134.89
186.029	183.63
186.41	201.3
186.791	188.48
187.171	245.44
187.552	251.42
187.932	291.54
188.313	327.1
188.694	318.28
189.074	346.72
189.455	337.05
189.835	369.74
190.216	391.9
190.596	430.81
190.977	393.32
191.357	434.22
191.737	406.67
192.118	433.94
192.498	442.74
192.878	446.71
193.258	452.39
193.639	447.85
194.019	458.35
194.399	439.33
194.779	447.28
195.159	462.89
195.54	466.01
195.92	477.65
196.3	471.41
196.68	459.77
197.06	463.74
197.44	473.68
197.82	455.23
198.2	443.87
198.58	453.53
198.959	450.97
199.339	454.66
199.719	420.59
200.099	428.54
200.479	429.68
200.858	444.16
201.238	424
201.618	429.68
201.998	452.67
202.377	441.03
202.757	435.64
203.136	422.01
203.516	429.39
203.896	438.48
204.275	424
204.655	436.21
205.034	418.03
205.414	421.16
205.793	428.26
206.172	427.12
206.552	411.22
206.931	432.52
207.31	432.52
207.69	439.05
208.069	437.91
208.448	424
208.827	433.37
209.207	401.28
209.586	443.02
209.965	392.47
210.344	420.87
210.723	416.9
211.102	408.66
211.481	450.97
211.86	415.48
212.239	439.05
212.618	421.73
212.997	457.22
213.376	472.54
213.755	452.67
214.134	443.59
214.513	410.08
214.891	440.47
215.27	455.23
215.649	448.42
216.028	452.67
216.406	447.85
216.785	445.86
217.164	423.71
217.542	448.98
217.921	436.49
218.3	444.16
218.678	438.2
219.057	469.14
219.435	483.61
219.814	458.35
220.192	454.66
220.57	485.88
220.949	481.91
221.327	463.74
221.705	467.43
222.084	473.39
222.462	461.76
222.84	500.35
223.218	477.93
223.597	484.18
223.975	497.79
224.353	500.06
224.731	530.41
225.109	494.96
225.487	528.71
225.865	511.12
226.243	522.19
226.621	513.96
226.999	545.15
227.377	528.42
227.755	554.51
228.133	527.86
228.511	561.88
228.889	579.73
229.266	559.04
229.644	582
230.022	564.71
230.4	587.66
230.777	578.31
231.155	575.2
231.533	576.33
231.91	624.77
232.288	611.17
232.665	629.58
233.043	616.27
233.42	631.85
233.798	646.29
234.175	629.58
234.553	644.87
234.93	683.93
235.307	671.48
235.685	678.83
236.062	696.09
236.439	729.46
236.816	688.45
237.194	720.98
237.571	755.19
237.948	750.39
238.325	753.78
238.702	782.6
239.079	780.34
239.456	791.64
239.833	793.62
240.21	810.57
240.587	861.11
240.964	802.66
241.341	873.24
241.718	862.8
242.095	850.38
242.472	879.73
242.849	904.28
243.225	914.15
243.602	931.92
243.979	960.11
244.356	958.7
244.732	969.41
245.109	969.13
245.486	983.22
245.862	988.01
246.239	1048.84
246.615	1012.51
246.992	1036.45
247.368	1037.29
247.745	1059.25
248.121	1088.24
248.497	1048.27
248.874	1106.52
249.25	1127.9
249.626	1117.21
250.003	1097.52
250.379	1126.49
250.755	1151.8
251.131	1153.48
251.507	1169.5
251.884	1186.08
252.26	1163.88
252.636	1196.48
253.012	1179.34
253.388	1226.81
253.764	1209.12
254.14	1266.12
254.516	1231.59
254.892	1262.75
255.268	1284.08
255.643	1224.85
256.019	1277.34
256.395	1289.13
256.771	1300.07
257.147	1291.37
257.522	1279.87
257.898	1306.24
258.274	1318.3
258.649	1301.75
259.025	1330.36
259.4	1312.97
259.776	1310.73
260.151	1301.47
260.527	1347.19
260.902	1334.01
261.278	1374.37
261.653	1325.59
262.028	1370.73
262.404	1333.17
262.779	1362.32
263.154	1356.72
263.53	1362.04
263.905	1373.81
264.28	1365.97
264.655	1379.42
265.03	1385.58
265.405	1384.46
265.781	1384.74
266.156	1366.53
266.531	1376.06
266.906	1378.3
267.281	1371.57
267.655	1337.09
268.03	1416.4
268.405	1393.15
268.78	1412.48
269.155	1374.09
269.53	1388.39
269.904	1383.62
270.279	1404.36
270.654	1372.41
271.029	1384.74
271.403	1427.6
271.778	1398.75
272.152	1393.15
272.527	1395.39
272.901	1378.3
273.276	1425.92
273.65	1425.92
274.025	1381.38
274.399	1459.52
274.774	1411.36
275.148	1420.6
275.522	1423.68
275.897	1440.77
276.271	1404.64
276.645	1397.07
277.019	1436.28
277.393	1446.36
277.768	1436.84
278.142	1446.36
278.516	1428.16
278.89	1410.52
279.264	1416.96
279.638	1422.84
280.012	1451.12
280.386	1420.32
280.76	1443
281.133	1454.2
281.507	1475.48
281.881	1456.44
282.255	1425.08
282.629	1465.68
283.002	1424.24
283.376	1453.36
283.75	1475.76
284.123	1473.8
284.497	1460.92
284.87	1450.28
285.244	1473.52
285.618	1476.6
285.991	1490.87
286.364	1480.79
286.738	1508.49
287.111	1521.08
287.485	1494.51
287.858	1506.82
288.231	1522.48
288.605	1511.01
288.978	1542.34
289.351	1536.46
289.724	1549.88
290.097	1546.81
290.47	1538.42
290.843	1524.72
291.217	1528.07
291.59	1537.58
291.963	1550.16
292.336	1562.19
292.708	1552.12
293.081	1535.34
293.454	1545.97
293.827	1571.41
294.2	1563.3
294.573	1530.03
294.945	1552.4
295.318	1530.59
295.691	1521.92
296.064	1526.68
296.436	1537.02
296.809	1550.44
297.181	1510.73
297.554	1516.05
297.926	1505.7
298.299	1512.69
298.671	1533.67
299.044	1511.57
299.416	1544.85
299.788	1477.72
300.161	1503.46
300.533	1515.49
300.905	1525
301.278	1524.16
301.65	1503.74
302.022	1504.58
302.394	1490.87
302.766	1511.85
303.138	1514.93
303.51	1529.19
303.882	1509.05
304.254	1508.77
304.626	1544.85
304.998	1536.74
305.37	1549.33
305.742	1538.14
306.114	1549.6
306.485	1515.77
306.857	1537.58
307.229	1537.02
307.601	1531.99
307.972	1508.77
308.344	1519.68
308.716	1540.94
309.087	1507.93
309.459	1527.79
309.83	1497.58
310.202	1491.71
310.573	1530.31
310.945	1577.28
311.316	1538.14
311.687	1496.74
312.059	1540.66
312.43	1533.39
312.801	1548.49
313.172	1521.36
313.544	1514.65
313.915	1538.42
314.286	1527.79
314.657	1564.7
315.028	1535.62
315.399	1529.19
315.77	1523.32
316.141	1529.75
316.512	1530.59
316.883	1551.28
317.254	1533.11
317.625	1555.48
317.996	1527.51
318.366	1493.11
318.737	1530.87
319.108	1501.78
319.478	1544.57
319.849	1504.86
320.22	1532.55
320.59	1526.4
320.961	1525.84
321.331	1545.41
321.702	1510.73
322.072	1514.93
322.443	1537.58
322.813	1514.09
323.184	1512.69
323.554	1519.12
323.924	1532.83
324.295	1539.26
324.665	1528.07
325.035	1521.64
325.405	1516.61
325.775	1514.65
326.145	1501.22
326.515	1543.73
326.886	1524.44
327.256	1515.49
327.626	1469.04
327.995	1464.84
328.365	1479.12
328.735	1496.74
329.105	1514.09
329.475	1519.4
329.845	1521.08
330.215	1539.82
330.584	1539.54
330.954	1529.47
331.324	1549.6
331.693	1527.79
332.063	1564.42
332.432	1555.48
332.802	1560.23
333.171	1582.59
333.541	1582.87
333.91	1594.88
334.28	1614.72
334.649	1563.86
335.018	1547.65
335.388	1576.16
335.757	1542.61
336.126	1556.59
336.495	1542.89
336.865	1528.63
337.234	1557.99
337.603	1487.51
337.972	1507.38
338.341	1498.7
338.71	1506.54
339.079	1516.61
339.448	1530.31
339.817	1499.82
340.186	1537.02
340.554	1537.02
340.923	1498.7
341.292	1516.89
341.661	1512.13
342.029	1544.01
342.398	1532.55
342.767	1508.77
343.135	1550.44
343.504	1523.32
343.872	1540.1
344.241	1530.03
344.609	1507.38
344.978	1535.06
345.346	1537.02
345.715	1515.49
346.083	1550.16
346.451	1495.34
346.82	1523.32
347.188	1539.26
347.556	1527.51
347.924	1533.95
348.292	1498.98
348.66	1503.18
349.028	1512.13
349.396	1519.4
349.764	1514.65
350.132	1517.73
350.5	1485.27
350.868	1519.96
351.236	1524.72
351.604	1515.21
351.972	1530.59
352.34	1498.98
352.707	1496.18
353.075	1463.44
353.443	1520.8
353.81	1468.2
354.178	1462.88
354.545	1492.27
354.913	1494.79
355.28	1496.18
355.648	1499.54
356.015	1506.54
356.383	1462.32
356.75	1481.07
357.117	1473.52
357.485	1485.55
357.852	1504.58
358.219	1493.67
358.586	1478
358.954	1483.87
359.321	1498.42
359.688	1449.16
360.055	1474.08
360.422	1451.12
360.789	1479.67
361.156	1451.68
361.523	1475.2
361.89	1451.68
362.256	1453.92
362.623	1477.44
362.99	1465.96
363.357	1424.52
363.724	1432.64
364.09	1452.24
364.457	1411.64
364.823	1461.2
365.19	1460.08
365.557	1463.72
365.923	1413.04
366.29	1407.44
366.656	1452.52
367.022	1428.72
367.389	1441.89
367.755	1423.96
368.121	1433.48
368.488	1440.21
368.854	1418.92
369.22	1416.4
369.586	1392.31
369.952	1404.64
370.318	1401.83
370.684	1358.68
371.051	1409.96
371.416	1420.04
371.782	1406.88
372.148	1368.49
372.514	1396.23
372.88	1381.1
373.246	1404.64
373.612	1377.74
373.977	1356.44
374.343	1394.55
374.709	1403.52
375.074	1397.91
375.44	1372.97
375.806	1378.86
376.171	1343.26
376.537	1349.15
376.902	1367.65
377.268	1366.25
377.633	1388.11
377.998	1413.32
378.364	1387.27
378.729	1383.34
379.094	1389.79
379.459	1393.71
379.825	1362.6
380.19	1381.66
380.555	1355.6
380.92	1335.69
381.285	1353.35
381.65	1330.64
382.015	1311.01
382.38	1338.49
382.745	1314.94
383.11	1312.69
383.474	1350.55
383.839	1322.79
384.204	1324.19
384.569	1318.02
384.933	1301.47
385.298	1282.39
385.663	1295.58
386.027	1309.05
386.392	1299.51
386.756	1307.92
387.121	1320.55
387.485	1350.55
387.849	1302.59
388.214	1320.83
388.578	1327.84
388.942	1317.74
389.307	1312.97
389.671	1310.73
390.035	1318.86
390.399	1293.9
390.763	1304.84
391.127	1326.72
391.492	1322.51
391.856	1356.44
392.219	1356.72
392.583	1381.66
392.947	1365.97
393.311	1365.13
393.675	1365.41
394.039	1286.04
394.403	1314.1
394.766	1272.29
395.13	1261.91
395.494	1285.76
395.857	1269.77
396.221	1292.21
396.584	1319.7
396.948	1290.25
397.311	1308.21
397.675	1374.09
398.038	1370.45
398.401	1341.3
398.765	1314.66
399.128	1299.79
399.491	1282.39
399.854	1292.5
400.218	1266.4
400.581	1284.36
400.944	1270.61
401.307	1254.33
401.67	1270.61
402.033	1264.15
402.396	1248.15
402.759	1247.03
403.122	1240.85
403.485	1233.27
403.847	1247.31
404.21	1267.8
404.573	1282.11
404.936	1270.89
405.298	1276.5
405.661	1264.99
406.023	1204.91
406.386	1207.71
406.749	1215.58
407.111	1218.39
407.473	1252.08
407.836	1218.67
408.198	1228.78
408.561	1240.01
408.923	1266.12
409.285	1237.2
409.647	1226.53
410.009	1217.55
410.372	1217.26
410.734	1231.87
411.096	1185.52
411.458	1209.68
411.82	1218.67
412.182	1200.41
412.544	1175.69
412.906	1228.5
413.267	1209.12
413.629	1225.41
413.991	1195.07
414.353	1227.66
414.714	1192.54
415.076	1179.06
415.438	1197.6
415.799	1204.06
416.161	1170.35
416.522	1168.66
416.884	1172.03
417.245	1161.63
417.607	1149.83
417.968	1157.98
418.329	1169.22
418.691	1157.98
419.052	1177.93
419.413	1176.53
419.774	1178.21
420.135	1219.23
420.497	1232.71
420.858	1241.13
421.219	1240.57
421.58	1250.12
421.941	1233.83
422.302	1181.31
422.662	1256.85
423.023	1159.67
423.384	1173.16
423.745	1187.77
424.106	1196.2
424.466	1219.79
424.827	1189.74
425.187	1177.09
425.548	1166.97
425.909	1115.52
426.269	1127.05
426.63	1148.98
426.99	1155.73
427.35	1171.75
427.711	1144.77
428.071	1154.04
428.431	1196.48
428.792	1238.61
429.152	1272.29
429.512	1298.67
429.872	1295.86
430.232	1293.9
430.592	1243.66
430.952	1213.89
431.312	1209.12
431.672	1134.65
432.032	1158.26
432.392	1139.71
432.752	1191.14
433.111	1206.03
433.471	1244.22
433.831	1194.79
434.19	1202.1
434.55	1210.52
434.91	1168.66
435.269	1188.89
435.629	1167.54
435.988	1180.74
436.348	1185.24
436.707	1159.39
437.066	1143.36
437.426	1140.83
437.785	1140.27
438.144	1173.72
438.503	1171.19
438.862	1146.45
439.222	1138.58
439.581	1125.09
439.94	1154.89
440.299	1191.14
440.658	1215.86
441.017	1239.17
441.376	1225.13
441.734	1210.24
442.093	1191.42
442.452	1188.05
442.811	1231.03
443.169	1201.82
443.528	1215.86
443.887	1194.51
444.245	1201.82
444.604	1168.66
444.962	1205.75
445.321	1171.19
445.679	1168.94
446.038	1158.82
446.396	1154.33
446.754	1147.58
447.112	1105.12
447.471	1145.33
447.829	1124.52
448.187	1128.18
448.545	1128.74
448.903	1124.52
449.261	1133.24
449.619	1139.14
449.977	1111.59
450.335	1094.15
450.693	1078.39
451.051	1090.49
451.409	1059.53
451.766	1040.11
452.124	1053.06
452.482	1044.61
452.839	1049.12
453.197	1064.04
453.555	1002.09
453.912	1018.43
454.27	1056.44
454.627	1065.44
454.984	1067.41
455.342	1063.19
455.699	1051.37
456.056	1023.22
456.414	1016.74
456.771	1062.07
457.128	1084.02
457.485	1080.92
457.842	1060.94
458.199	1084.86
458.556	1080.64
458.913	1060.1
459.27	1091.61
459.627	1055.87
459.984	1060.66
460.341	1048.27
460.697	1072.2
461.054	1058.41
461.411	1021.81
461.767	992.51
462.124	1024.06
462.481	1000.4
462.837	995.05
463.194	1006.88
463.55	1049.12
463.907	1079.8
464.263	1068.54
464.619	1063.19
464.976	1127.33
465.332	1137.46
465.688	1111.59
466.044	1047.71
466.4	1055.59
466.756	1013.92
467.112	1073.32
467.468	1033.35
467.824	989.98
468.18	994.49
468.536	996.74
468.892	999.56
469.248	989.98
469.604	955.88
469.959	992.23
470.315	1000.12
470.671	969.41
471.026	951.37
471.382	978.99
471.737	968.84
472.093	1028
472.448	1019.84
472.804	1066.29
473.159	1070.79
473.514	1063.76
473.87	1078.67
474.225	1090.49
474.58	1109.05
474.935	1120.87
475.29	1106.24
475.645	1141.67
476	1124.52
476.355	1104.84
476.71	1082.89
477.065	1124.52
477.42	1124.24
477.775	1116.09
478.13	1135.77
478.485	1120.02
478.839	1133.24
479.194	1197.32
479.549	1200.41
479.903	1202.66
480.258	1208
480.612	1212.21
480.967	1246.47
481.321	1245.34
481.675	1240.85
482.03	1188.61
482.384	1179.34
482.738	1197.6
483.093	1206.59
483.447	1228.5
483.801	1252.92
484.155	1318.02
484.509	1364
484.863	2149.42
485.217	2838.88
485.571	3277.77
485.925	2797.91
486.279	2275.51
486.632	1880.74
486.986	1563.3
487.34	1385.58
487.694	1296.14
488.047	1254.33
488.401	1244.78
488.754	1231.87
489.108	1188.89
489.461	1203.78
489.815	1170.63
490.168	1187.77
490.522	1156.01
490.875	1185.24
491.228	1188.89
491.581	1192.83
491.935	1199.57
492.288	1191.7
492.641	1220.35
492.994	1172.88
493.347	1205.19
493.7	1235.24
494.053	1217.26
494.406	1174.84
494.759	1176.53
495.111	1200.69
495.464	1207.15
495.817	1283.8
496.169	1256.01
496.522	1204.06
496.875	1178.78
497.227	1152.64
497.58	1107.65
497.932	1158.82
498.285	1152.08
498.637	1178.5
498.989	1152.08
499.342	1198.44
499.694	1191.7
500.046	1136.33
500.398	1130.15
500.751	1167.54
501.103	1202.66
501.455	1179.34
501.807	1191.42
502.159	1201.53
502.511	1192.26
502.862	1233.83
503.214	1171.47
503.566	1158.26
503.918	1159.1
504.27	1157.98
504.621	1158.26
504.973	1108.77
505.324	1130.99
505.676	1128.74
506.027	1154.33
506.379	1166.13
506.73	1096.4
507.082	1124.8
507.433	1112.99
507.784	1138.02
508.136	1120.3
508.487	1094.15
508.838	1103.71
509.189	1085.42
509.54	1083.74
509.891	1098.65
510.242	1072.76
510.593	1113.55
510.944	1085.99
511.295	1046.58
511.646	1053.06
511.996	1047.43
512.347	1060.94
512.698	1062.91
513.049	1038.98
513.399	1028.57
513.75	1022.65
514.1	1013.92
514.451	999.27
514.801	1000.96
515.152	971.1
515.502	992.8
515.852	1039.55
516.202	1043.77
516.553	1013.64
516.903	1013.64
517.253	994.77
517.603	994.49
517.953	982.93
518.303	995.61
518.653	1025.19
519.003	1011.11
519.353	999.84
519.703	972.79
520.052	962.08
520.402	946.3
520.752	972.51
521.102	976.74
521.451	919.23
521.801	929.38
522.15	964.05
522.5	960.39
522.849	962.36
523.199	966.59
523.548	1018.99
523.897	952.78
524.246	984.91
524.596	944.32
524.945	948.83
525.294	953.34
525.643	985.19
525.992	932.2
526.341	948.55
526.69	928.53
527.039	975.04
527.388	935.86
527.737	970.25
528.086	976.45
528.434	989.7
528.783	991.1
529.132	989.98
529.48	963.77
529.829	955.88
530.177	966.87
530.526	946.3
530.874	942.35
531.223	954.47
531.571	944.89
531.919	951.93
532.268	964.34
532.616	1019.27
532.964	1020.96
533.312	1029.69
533.66	1039.26
534.008	1055.59
534.356	1015.61
534.704	1029.41
535.052	1035.89
535.4	1035.6
535.748	966.03
536.095	960.39
536.443	953.91
536.791	946.01
537.139	977.58
537.486	1017.86
537.834	1013.08
538.181	1017.58
538.529	1040.11
538.876	1022.09
539.223	1003.78
539.571	1022.09
539.918	989.13
540.265	971.94
540.613	1004.91
540.96	1002.37
541.307	1000.96
541.654	984.62
542.001	1000.68
542.348	996.46
542.695	995.05
543.042	1032.51
543.388	1035.32
543.735	1017.58
544.082	995.61
544.429	1022.93
544.775	1073.04
545.122	998.71
545.469	961.8
545.815	970.82
546.162	938.4
546.508	957.85
546.854	1016.17
547.201	1019.27
547.547	1056.72
547.893	1069.67
548.24	1035.89
548.586	973.35
548.932	942.91
549.278	944.32
549.624	918.38
549.97	952.78
550.316	934.45
550.662	935.58
551.008	933.61
551.353	971.94
551.699	1001.53
552.045	1004.06
552.391	982.93
552.736	966.59
553.082	975.61
553.427	994.77
553.773	979.83
554.118	936.43
554.464	926
554.809	942.91
555.154	989.13
555.5	1002.37
555.845	998.15
556.19	984.91
556.535	974.76
556.88	919.23
557.225	938.97
557.57	905.13
557.915	889.89
558.26	902.3
558.605	889.61
558.95	870.7
559.295	911.05
559.639	930.23
559.984	1002.65
560.329	1044.05
560.673	1029.13
561.018	1017.58
561.362	1033.63
561.707	976.17
562.051	983.22
562.395	951.37
562.74	1002.09
563.084	1007.16
563.428	1039.55
563.772	1008.29
564.117	1046.3
564.461	1033.92
564.805	1042.08
565.149	1028.57
565.493	1061.5
565.836	1027.16
566.18	1053.9
566.524	1120.02
566.868	1175.4
567.212	1202.66
567.555	1239.73
567.899	1303.16
568.242	1344.38
568.586	1469.32
568.929	1602.43
569.273	1692.06
569.616	1771.27
569.96	1859.86
570.303	1957.8
570.646	1994.22
570.989	2067.56
571.333	2099.48
571.676	2052
572.019	1934.44
572.362	1840.92
572.705	2005.33
573.048	2164.4
573.391	2349.69
573.733	2403.06
574.076	2518.52
574.419	2518.8
574.762	2376.79
575.104	2223.16
575.447	2094.21
575.789	2175.21
576.132	2328.66
576.474	2456.39
576.817	2694.15
577.159	2992.12
577.501	3132.47
577.844	3051.64
578.186	2690.3
578.528	2400.02
578.87	2297.39
579.212	2228.7
579.554	2334.75
579.896	2337.24
580.238	2430.7
580.58	2857.85
580.922	3321.77
581.264	3619.05
581.606	3548.51
581.947	3278.86
582.289	2950.96
582.631	2469.93
582.972	2126.67
583.314	1974.48
583.655	1956.97
583.997	2091.15
584.338	2351.07
584.679	2599.63
585.021	2689.47
585.362	2570.12
585.703	2327.28
586.044	2197.11
586.385	2210.97
586.726	2312.06
587.067	2347.2
587.408	2269.15
587.749	2136.66
588.09	1990.88
588.431	1874.06
588.772	1730.84
589.113	1630.08
589.453	1690.1
589.794	1640.69
590.134	1570.85
590.475	1488.07
590.815	1420.6
591.156	1441.33
591.496	1450.56
591.837	1658.56
592.177	1910.79
592.517	2167.72
592.857	2171.88
593.198	2081.16
593.538	1894.38
593.878	1771.55
594.218	1688.99
594.558	1721.07
594.898	1743.94
595.237	1654.38
595.577	1540.94
595.917	1431.8
596.257	1425.64
596.596	1415
596.936	1470.72
597.276	1479.95
597.615	1488.07
597.955	1524.72
598.294	1741.43
598.633	1835.63
598.973	1867.1
599.312	1831.17
599.651	1853.18
599.991	1800.81
600.33	1755.93
600.669	1704.61
601.008	1635.67
601.347	1532.83
601.686	1516.33
602.025	1527.23
602.364	1622.54
602.702	1639.58
603.041	1667.78
603.38	1611.93
603.719	1549.6
604.057	1467.36
604.396	1440.77
604.734	1447.2
605.073	1563.86
605.411	1589.58
605.75	1627.29
606.088	1520.24
606.426	1521.36
606.764	1528.91
607.103	1514.09
607.441	1476.88
607.779	1400.15
608.117	1386.42
608.455	1354.75
608.793	1339.9
609.131	1364.85
609.469	1430.96
609.806	1448.6
610.144	1401.55
610.482	1312.97
610.819	1290.81
611.157	1298.11
611.495	1274.26
611.832	1259.38
612.17	1223.44
612.507	1231.59
612.844	1232.43
613.182	1245.34
613.519	1230.18
613.856	1226.81
614.193	1222.32
614.53	1240.85
614.867	1292.78
615.205	1252.64
615.541	1241.98
615.878	1153.2
616.215	1138.86
616.552	1131.55
616.889	1112.71
617.226	1131.83
617.562	1110.74
617.899	1076.42
618.235	1035.32
618.572	988.01
618.908	957.85
619.245	999.56
619.581	1022.09
619.918	993.36
620.254	915
620.59	877.2
620.926	876.91
621.262	920.64
621.599	927.41
621.935	932.48
622.271	949.68
622.606	1004.63
622.942	992.8
623.278	981.81
623.614	990.26
623.95	981.24
624.285	999.56
624.621	971.66
624.957	946.58
625.292	926
625.628	902.87
625.963	850.67
626.299	860.54
626.634	857.72
626.969	838.53
627.304	843.33
627.64	773.84
627.975	795.88
628.31	793.9
628.645	835.99
628.98	804.92
629.315	819.89
629.65	788.25
629.985	799.84
630.319	775.54
630.654	761.41
630.989	783.73
631.323	746.43
631.658	748.12
631.993	707.69
632.327	709.1
632.662	702.31
632.996	717.87
633.33	715.61
633.665	708.82
633.999	690.72
634.333	681.38
634.667	709.1
635.001	683.64
635.335	701.18
635.669	693.83
636.003	741.06
636.337	709.39
636.671	699.2
637.005	658.17
637.339	691.85
637.672	664.4
638.006	700.05
638.339	692.13
638.673	675.72
639.006	648.55
639.34	652.51
639.673	647.13
640.007	686.76
640.34	659.02
640.673	628.17
641.006	675.72
641.34	630.71
641.673	634.96
642.006	634.96
642.339	629.86
642.672	623.92
643.004	660.72
643.337	614.57
643.67	616.27
644.003	620.24
644.336	635.53
644.668	610.89
645.001	597.01
645.333	584.83
645.666	620.8
645.998	575.2
646.331	586.53
646.663	589.36
646.995	597.01
647.327	619.67
647.66	659.87
647.992	662.7
648.324	677.42
648.656	662.42
648.988	661.85
649.32	627.32
649.652	617.97
649.983	639.49
650.315	605.51
650.647	635.81
650.979	631
651.31	623.07
651.642	616.56
651.973	645.72
652.305	636.94
652.636	661.57
652.967	663.83
653.299	650.25
653.63	653.36
653.961	658.17
654.292	693.26
654.623	1476.6
654.955	5577.18
655.286	10255.52
655.616	13062.32
655.947	11646.88
656.278	8139.6
656.609	5384.26
656.94	3643
657.27	2750.87
657.601	2226.76
657.932	1645.44
658.262	1211.65
658.593	878.89
658.923	748.97
659.254	680.53
659.584	597.01
659.914	573.78
660.244	578.03
660.575	561.31
660.905	563.58
661.235	592.76
661.565	560.46
661.895	587.95
662.225	558.76
662.555	582.28
662.884	597.58
663.214	569.53
663.544	572.08
663.873	538.63
664.203	604.66
664.533	574.63
664.862	589.36
665.192	571.79
665.521	584.55
665.85	560.18
666.18	564.14
666.509	545.15
666.838	561.88
667.167	547.14
667.496	556.49
667.825	578.6
668.154	568.39
668.483	584.26
668.812	539.77
669.141	541.75
669.47	544.02
669.798	568.68
670.127	574.06
670.456	580.3
670.784	598.43
671.113	627.32
671.441	666.38
671.77	662.14
672.098	636.66
672.426	632.41
672.755	593.05
673.083	606.64
673.411	587.95
673.739	589.65
674.067	589.93
674.395	591.06
674.723	570.66
675.051	591.35
675.379	602.11
675.706	563.86
676.034	570.94
676.362	604.09
676.689	554.22
677.017	597.29
677.344	611.46
677.672	628.45
677.999	614.01
678.327	615.42
678.654	627.32
678.981	637.79
679.308	629.86
679.636	651.1
679.963	629.02
680.29	614.29
680.617	600.41
680.944	636.38
681.271	617.4
681.597	590.78
681.924	601.54
682.251	582.85
682.578	574.91
682.904	567.26
683.231	611.46
683.557	650.25
683.884	629.58
684.21	622.5
684.536	658.46
684.863	664.68
685.189	650.81
685.515	610.32
685.841	660.72
686.167	639.21
686.493	636.09
686.819	646.57
687.145	625.33
687.471	598.71
687.797	607.21
688.123	575.76
688.448	595.31
688.774	600.13
689.1	587.95
689.425	604.66
689.751	588.23
690.076	583.41
690.402	598.71
690.727	617.12
691.052	615.42
691.377	637.23
691.703	602.11
692.028	624.48
692.353	604.09
692.678	631.28
693.003	602.39
693.328	568.11
693.652	572.64
693.977	578.03
694.302	577.18
694.627	585.4
694.951	563.58
695.276	603.24
695.6	559.32
695.925	567.54
696.249	608.34
696.574	638.92
696.898	634.68
697.222	630.15
697.546	606.64
697.871	571.79
698.195	591.35
698.519	560.46
698.843	580.01
699.167	588.8
699.491	577.75
699.814	557.34
700.138	541.18
700.462	565.84
700.786	542.6
701.109	563.29
701.433	567.83
701.756	566.41
702.08	569.24
702.403	564.99
702.726	572.93
703.05	558.76
703.373	564.99
703.696	544.3
704.019	543.17
704.342	541.47
704.665	546.29
704.988	555.36
705.311	542.03
705.634	557.34
705.957	568.68
706.28	603.81
706.602	611.17
706.925	599.56
707.247	609.76
707.57	596.73
707.892	577.46
708.215	580.3
708.537	580.01
708.859	598.43
709.182	585.68
709.504	595.03
709.826	574.35
710.148	585.68
710.47	559.32
710.792	561.31
711.114	532.96
711.436	551.1
711.758	525.02
712.079	547.14
712.401	558.19
712.723	565.28
713.044	577.18
713.366	566.13
713.687	612.02
714.009	585.11
714.33	593.61
714.652	576.05
714.973	571.79
715.294	565.56
715.615	528.42
715.936	537.21
716.257	540.9
716.578	530.69
716.899	534.66
717.22	534.38
717.541	563.29
717.862	529.84
718.182	550.25
718.503	564.14
718.824	555.92
719.144	528.71
719.465	544.3
719.785	508.29
720.105	538.91
720.426	581.43
720.746	530.13
721.066	546.29
721.386	544.3
721.706	588.51
722.026	553.94
722.346	535.23
722.666	547.99
722.986	553.09
723.306	527.29
723.626	537.21
723.946	583.98
724.265	536.36
724.585	527.86
724.904	540.9
725.224	596.16
725.543	585.68
725.863	585.96
726.182	563.29
726.501	547.99
726.82	561.59
727.14	533.24
727.459	563.01
727.778	559.61
728.097	588.8
728.416	584.55
728.734	590.5
729.053	549.97
729.372	595.59
729.691	563.01
730.009	586.25
730.328	598.99
730.647	580.3
730.965	623.64
731.283	599.56
731.602	578.31
731.92	559.32
732.238	590.21
732.557	587.66
732.875	598.71
733.193	605.23
733.511	602.11
733.829	622.79
734.147	614.29
734.465	603.81
734.782	600.41
735.1	615.99
735.418	598.99
735.735	569.24
736.053	597.01
736.371	606.64
736.688	576.61
737.005	563.86
737.323	542.32
737.64	552.81
737.957	556.49
738.274	575.76
738.592	597.01
738.909	594.18
739.226	576.05
739.543	569.81
739.86	548.27
740.176	560.74
740.493	551.1
740.81	544.87
741.127	541.75
741.443	526.44
741.76	559.04
742.076	552.52
742.393	508.57
742.709	530.98
743.025	530.13
743.342	547.14
743.658	537.21
743.974	516.51
744.29	578.31
744.606	517.36
744.922	498.08
745.238	531.54
745.554	517.36
745.87	514.24
746.186	537.5
746.501	540.62
746.817	509.42
747.132	519.63
747.448	512.26
747.763	529.27
748.079	522.19
748.394	536.93
748.71	538.35
749.025	550.82
749.34	574.35
749.655	562.44
749.97	548.84
750.285	572.36
750.6	542.88
750.915	546.85
751.23	544.02
751.545	560.46
751.859	582.28
752.174	539.2
752.489	555.36
752.803	592.48
753.118	587.38
753.432	547.99
753.747	575.48
754.061	574.91
754.375	558.76
754.689	578.03
755.004	553.94
755.318	546
755.632	581.43
755.946	579.45
756.26	604.09
756.573	627.03
756.887	627.03
757.201	640.62
757.515	630.43
757.828	625.33
758.142	580.3
758.455	579.16
758.769	615.71
759.082	640.06
759.396	660.16
759.709	629.02
760.022	644.3
760.335	645.44
760.648	619.39
760.962	625.05
761.275	602.39
761.587	579.45
761.9	571.79
762.213	566.98
762.526	587.66
762.839	585.4
763.151	559.04
763.464	610.04
763.776	601.26
764.089	619.1
764.401	625.62
764.714	588.23
765.026	584.55
765.338	564.71
765.65	561.03
765.962	566.41
766.275	545.15
766.587	535.8
766.898	557.34
767.21	565.56
767.522	543.45
767.834	594.46
768.146	609.76
768.457	568.11
768.769	539.48
769.08	522.75
769.392	562.44
769.703	570.09
770.015	580.86
770.326	575.48
770.637	592.76
770.948	586.53
771.26	553.37
771.571	576.33
771.882	553.09
772.193	561.31
772.504	534.95
772.814	542.32
773.125	547.7
773.436	540.33
773.747	522.47
774.057	516.8
774.368	530.69
774.678	515.95
774.989	537.78
775.299	504.6
775.609	518.5
775.919	528.42
776.23	519.63
776.54	510.56
776.85	512.54
777.16	523.6
777.47	513.96
777.78	533.24
778.089	545.72
778.399	534.38
778.709	556.49
779.019	531.54
779.328	508.86
779.638	487.3
779.947	509.99
780.257	553.94
780.566	542.32
780.875	549.97
781.185	528.71
781.494	567.54
781.803	517.93
782.112	533.24
782.421	532.96
782.73	513.11
783.039	534.66
783.348	537.21
783.656	512.83
783.965	481.05
784.274	503.75
784.582	523.89
784.891	508.29
785.199	493.54
785.508	532.68
785.816	494.67
786.124	513.39
786.432	531.54
786.741	536.65
787.049	517.65
787.357	524.17
787.665	522.19
787.973	517.65
788.281	515.38
788.588	520.48
788.896	533.81
789.204	497.51
789.511	511.41
789.819	497.79
790.126	496.09
790.434	495.52
790.741	499.5
791.049	479.92
791.356	484.74
791.663	491.27
791.97	534.95
792.277	489.85
792.584	506.02
792.891	520.2
793.198	508.86
793.505	520.77
793.812	555.64
794.119	536.65
794.425	514.24
794.732	534.95
795.038	504.6
795.345	518.5
795.651	515.38
795.958	502.9
796.264	462.89
796.57	497.23
796.876	480.2
797.183	508.29
797.489	496.94
797.795	487.58
798.101	468
798.406	483.04
798.712	466.3
799.018	481.62
799.324	489.57
799.629	485.59
799.935	484.18
800.24	477.08
800.546	515.95
800.851	487.86
801.157	492.12
801.462	477.37
801.767	517.65
802.072	484.18
802.377	472.83
802.682	485.03
802.987	464.03
803.292	469.14
803.597	489
803.902	468
804.207	497.23
804.511	503.18
804.816	492.97
805.12	496.09
805.425	513.11
805.729	516.8
806.034	511.41
806.338	492.97
806.642	484.18
806.946	508.29
807.251	528.42
807.555	485.88
807.859	506.87
808.162	462.89
808.466	494.39
808.77	497.51
809.074	479.35
809.378	477.93
809.681	487.58
809.985	480.2
810.288	482.76
810.592	498.64
810.895	462.61
811.198	517.36
811.502	475.38
811.805	494.67
812.108	470.55
812.411	495.24
812.714	495.81
813.017	473.96
813.32	468.28
813.623	484.18
813.926	483.61
814.228	511.69
814.531	468.85
814.833	476.23
815.136	473.11
815.438	496.09
815.741	461.76
816.043	478.22
816.345	491.55
816.648	477.93
816.95	477.93
817.252	469.99
817.554	487.3
817.856	477.65
818.158	485.03
818.46	441.6
818.761	467.15
819.063	473.11
819.365	468
819.666	482.76
819.968	484.18
820.269	470.55
820.571	469.14
820.872	467.72
821.173	480.49
821.475	469.7
821.776	483.32
822.077	472.54
822.378	467.72
822.679	473.11
822.98	456.08
823.281	487.01
823.581	471.12
823.882	478.22
824.183	471.12
824.483	451.82
824.784	476.23
825.084	479.07
825.385	471.69
825.685	492.97
825.985	472.83
826.286	479.64
826.586	484.18
826.886	490.42
827.186	472.54
827.486	482.19
827.786	479.07
828.086	481.62
828.386	484.18
828.685	462.32
828.985	473.96
829.285	453.81
829.584	477.65
829.884	473.11
830.183	490.42
830.482	469.14
830.782	453.81
831.081	481.05
831.38	471.69
831.679	497.51
831.978	465.16
832.277	491.55
832.576	459.49
832.875	485.03
833.174	450.12
833.472	482.76
833.771	512.54
834.07	477.37
834.368	482.76
834.667	462.32
834.965	475.66
835.263	457.5
835.562	477.93
835.86	467.15
836.158	473.68
836.456	480.77
836.754	461.47
837.052	475.38
837.35	466.87
837.648	490.98
837.946	463.18
838.243	445.86
838.541	473.68
838.839	461.19
839.136	466.3
839.434	452.67
839.731	445.86
840.028	496.94
840.326	472.26
840.623	474.81
840.92	469.7
841.217	448.98
841.514	458.92
841.811	466.01
842.108	489.28
842.405	474.81
842.701	456.36
842.998	471.41
843.295	470.27
843.591	473.68
843.888	482.47
844.184	478.22
844.481	463.18
844.777	454.94
845.073	443.87
845.369	456.36
845.665	458.35
845.962	483.32
846.258	449.84
846.553	498.64
846.849	456.93
847.145	463.46
847.441	487.3
847.737	447.56
848.032	447.56
848.328	471.69
848.623	470.84
848.919	443.59
849.214	462.32
849.509	487.01
849.805	489
850.1	472.83
850.395	452.39
850.69	462.32
850.985	445.58
851.28	468.85
851.575	498.93
851.869	474.81
852.164	464.03
852.459	458.07
852.753	462.61
853.048	468.57
853.342	484.18
853.637	490.13
853.931	449.84
854.225	483.61
854.52	473.11
854.814	445.01
855.108	454.94
855.402	444.73
855.696	469.99
855.99	480.2
856.283	450.97
856.577	470.55
856.871	461.19
857.164	475.38
857.458	478.78
857.751	461.19
858.045	467.15
858.338	471.69
858.632	474.53
858.925	453.81
859.218	452.39
859.511	456.08
859.804	461.76
860.097	465.45
860.39	455.51
860.683	448.7
860.976	466.87
861.268	462.61
861.561	490.98
861.854	466.87
862.146	462.32
862.439	452.96
862.731	478.78
863.023	465.73
863.316	463.74
863.608	475.95
863.9	454.09
864.192	462.32
864.484	473.96
864.776	480.2
865.068	472.26
865.36	451.25
865.651	459.49
865.943	443.87
866.235	458.35
866.526	449.84
866.818	449.84
867.109	446.43
867.4	445.01
867.692	459.77
867.983	458.63
868.274	443.59
868.565	464.31
868.856	456.65
869.147	482.19
869.438	466.3
869.729	450.97
870.02	464.03
870.31	477.37
870.601	480.77
870.892	467.72
871.182	456.08
871.473	464.88
871.763	491.27
872.053	440.47
872.343	480.49
872.634	469.99
872.924	463.46
873.214	456.93
873.504	479.35
873.794	479.64
874.084	459.77
874.373	468.28
874.663	485.88
874.953	448.13
875.242	463.18
875.532	461.76
875.821	466.01
876.111	473.11
876.4	481.62
876.689	475.66
876.978	454.66
877.268	472.26
877.557	439.9
877.846	453.81
878.134	467.72
878.423	467.72
878.712	467.72
