Data from FLMS007011_11-49-02-592.txt Node
Date: Thu Apr 21 11:49:02 MDT 2016
User: lab_user
Spectrometer: FLMS00701
Autoset integration time: false
Trigger mode: 0
Integration Time (sec): 5.000000E-3
Scans to average: 10
Electric dark correction enabled: true
Nonlinearity correction enabled: true
Boxcar width: 0
XAxis mode: Wavelengths
Stop averaging: false
Number of Pixels in Spectrum: 2048
>>>>>Begin Spectral Data<<<<<
178.41	21.61
178.791	21.61
179.172	21.61
179.553	-48.39
179.934	-61.83
180.316	-59.54
180.697	-44.68
181.078	-52.11
181.459	-59.83
181.84	-34.96
182.221	-0.38
182.602	-16.1
182.983	7.62
183.364	31.89
183.744	50.17
184.125	68.15
184.506	43.89
184.887	110.95
185.268	139.47
185.648	123.21
186.029	172.53
186.41	178.8
186.791	218.12
187.171	233.5
187.552	247.16
187.932	290.99
188.313	314.6
188.694	314.32
189.074	315.45
189.455	341.33
189.835	374.02
190.216	368.62
190.596	401.29
190.977	383.11
191.357	389.93
191.737	409.25
192.118	404.42
192.498	416.91
192.878	402.71
193.258	444.46
193.639	429.98
194.019	436.22
194.399	437.93
194.779	426
195.159	481.92
195.54	426.57
195.92	456.66
196.3	455.53
196.68	425.72
197.06	472.56
197.44	447.01
197.82	432.25
198.2	447.58
198.58	436.51
198.959	445.03
199.339	436.79
199.719	447.86
200.099	411.8
200.479	417.77
200.858	439.35
201.238	415.49
201.618	413.22
201.998	428.27
202.377	415.21
202.757	404.13
203.136	409.53
203.516	413.22
203.896	403.85
204.275	401.01
204.655	427.99
205.034	427.42
205.414	406.69
205.793	402.71
206.172	403
206.552	411.8
206.931	400.72
207.31	400.72
207.69	409.53
208.069	393.62
208.448	418.33
208.827	414.93
209.207	428.84
209.586	398.45
209.965	401.01
210.344	433.1
210.723	415.49
211.102	406.69
211.481	420.89
211.86	396.75
212.239	394.47
212.618	432.82
212.997	420.89
213.376	404.7
213.755	433.38
214.134	408.68
214.513	434.52
214.891	421.46
215.27	386.52
215.649	414.07
216.028	401.01
216.406	409.81
216.785	410.1
217.164	434.24
217.542	415.78
217.921	420.32
218.3	404.13
218.678	428.56
219.057	406.12
219.435	413.51
219.814	414.93
220.192	410.1
220.57	401.29
220.949	389.08
221.327	455.24
221.705	409.53
222.084	438.5
222.462	399.59
222.84	406.97
223.218	392.49
223.597	457.8
223.975	441.9
224.353	429.98
224.731	429.98
225.109	419.19
225.487	429.13
225.865	426.85
226.243	436.22
226.621	406.12
226.999	425.15
227.377	428.84
227.755	420.61
228.133	431.11
228.511	412.37
228.889	400.16
229.266	398.45
229.644	425.72
230.022	432.53
230.4	445.88
230.777	397.03
231.155	428.56
231.533	467.45
231.91	410.38
232.288	441.62
232.665	441.9
233.043	422.59
233.42	454.96
233.798	416.06
234.175	417.2
234.553	404.99
234.93	443.89
235.307	481.64
235.685	442.47
236.062	439.92
236.439	426.85
236.816	410.1
237.194	428.84
237.571	434.24
237.948	433.1
238.325	413.51
238.702	435.94
239.079	437.08
239.456	435.66
239.833	436.22
240.21	440.48
240.587	423.73
240.964	454.96
241.341	435.94
241.718	433.1
242.095	439.35
242.472	441.62
242.849	448.15
243.225	426
243.602	454.11
243.979	435.66
244.356	447.01
244.732	433.67
245.109	406.12
245.486	456.95
245.862	418.05
246.239	445.03
246.615	450.99
246.992	426
247.368	456.66
247.745	458.93
248.121	420.61
248.497	427.14
248.874	420.89
249.25	426.57
249.626	431.11
250.003	428.56
250.379	435.37
250.755	461.21
251.131	442.19
251.507	429.69
251.884	441.9
252.26	424.87
252.636	438.5
253.012	446.44
253.388	445.31
253.764	437.08
254.14	459.22
254.516	452.41
254.892	484.76
255.268	437.36
255.643	467.17
256.019	446.44
256.395	441.62
256.771	468.58
257.147	440.2
257.522	449
257.898	439.63
258.274	472.27
258.649	467.17
259.025	433.95
259.4	411.8
259.776	446.44
260.151	431.68
260.527	439.92
260.902	422.31
261.278	454.39
261.653	439.06
262.028	427.99
262.404	453.54
262.779	443.32
263.154	464.04
263.53	455.24
263.905	449.28
264.28	463.19
264.655	457.52
265.03	427.42
265.405	452.69
265.781	440.2
266.156	444.17
266.531	448.43
266.906	450.42
267.281	449.28
267.655	471.71
268.03	469.44
268.405	442.47
268.78	424.58
269.155	460.35
269.53	464.61
269.904	456.38
270.279	442.47
270.654	472.84
271.029	448.43
271.403	459.22
271.778	464.61
272.152	447.3
272.527	445.59
272.901	460.64
273.276	451.27
273.65	454.11
274.025	455.81
274.399	456.95
274.774	468.87
275.148	464.04
275.522	477.1
275.897	455.53
276.271	430.83
276.645	427.71
277.019	493.55
277.393	466.88
277.768	464.04
278.142	447.01
278.516	493.84
278.89	444.46
279.264	461.21
279.638	473.41
280.012	459.22
280.386	462.91
280.76	453.26
281.133	452.69
281.507	460.64
281.881	463.48
282.255	467.73
282.629	470.85
283.002	435.09
283.376	453.54
283.75	454.11
284.123	456.38
284.497	467.17
284.87	437.36
285.244	461.77
285.618	430.83
285.991	475.96
286.364	462.91
286.738	474.54
287.111	462.62
287.485	481.64
287.858	476.53
288.231	448.72
288.605	458.37
288.978	453.54
289.351	476.25
289.724	462.34
290.097	453.83
290.47	480.22
290.843	469.15
291.217	447.01
291.59	487.31
291.963	467.73
292.336	436.51
292.708	460.64
293.081	465.46
293.454	466.03
293.827	447.58
294.2	461.77
294.573	448.15
294.945	506.04
295.318	445.03
295.691	463.48
296.064	462.06
296.436	477.38
296.809	466.88
297.181	481.35
297.554	470
297.926	483.91
298.299	455.81
298.671	461.77
299.044	433.38
299.416	468.58
299.788	434.8
300.161	438.21
300.533	461.49
300.905	457.23
301.278	489.58
301.65	478.8
302.022	474.26
302.394	477.95
302.766	473.98
303.138	464.61
303.51	451.84
303.882	476.53
304.254	455.24
304.626	431.68
304.998	502.06
305.37	453.26
305.742	471.99
306.114	459.5
306.485	457.23
306.857	445.03
307.229	470.29
307.601	451.27
307.972	461.49
308.344	472.84
308.716	464.33
309.087	464.89
309.459	480.79
309.83	451.27
310.202	470.29
310.573	471.71
310.945	465.46
311.316	461.77
311.687	469.72
312.059	466.03
312.43	467.73
312.801	471.71
313.172	478.23
313.544	481.92
313.915	456.66
314.286	455.53
314.657	475.96
315.028	460.92
315.399	466.88
315.77	463.19
316.141	458.37
316.512	456.95
316.883	456.1
317.254	473.69
317.625	464.61
317.996	469.15
318.366	478.52
318.737	458.93
319.108	455.53
319.478	470.85
319.849	454.11
320.22	455.53
320.59	483.06
320.961	471.14
321.331	473.41
321.702	464.04
322.072	491.57
322.443	450.42
322.813	468.87
323.184	472.27
323.554	484.47
323.924	487.03
324.295	481.35
324.665	481.92
325.035	440.48
325.405	491.28
325.775	462.62
326.145	487.88
326.515	483.62
326.886	464.04
327.256	431.11
327.626	467.17
327.995	437.64
328.365	452.69
328.735	483.62
329.105	476.53
329.475	462.06
329.845	466.03
330.215	465.75
330.584	470.57
330.954	484.19
331.324	474.26
331.693	464.04
332.063	478.23
332.432	466.88
332.802	466.03
333.171	457.8
333.541	491
333.91	465.18
334.28	472.27
334.649	480.79
335.018	487.6
335.388	475.39
335.757	460.07
336.126	475.68
336.495	460.07
336.865	486.18
337.234	490.43
337.603	485.33
337.972	479.37
338.341	465.18
338.71	465.75
339.079	473.12
339.448	475.96
339.817	461.49
340.186	481.35
340.554	464.61
340.923	479.65
341.292	467.45
341.661	493.27
342.029	493.27
342.398	469.44
342.767	469.72
343.135	470.57
343.504	467.73
343.872	481.35
344.241	474.83
344.609	477.1
344.978	481.64
345.346	482.77
345.715	475.68
346.083	454.96
346.451	490.43
346.82	463.19
347.188	448.15
347.556	489.01
347.924	477.95
348.292	466.03
348.66	465.18
349.028	452.69
349.396	457.52
349.764	454.68
350.132	505.47
350.5	466.6
350.868	494.4
351.236	482.2
351.604	487.31
351.972	476.81
352.34	466.6
352.707	469.44
353.075	473.98
353.443	468.58
353.81	466.03
354.178	496.96
354.545	477.38
354.913	485.04
355.28	486.74
355.648	475.68
356.015	469.72
356.383	472.27
356.75	497.53
357.117	479.08
357.485	472.56
357.852	474.54
358.219	464.61
358.586	454.96
358.954	485.61
359.321	480.5
359.688	479.65
360.055	457.8
360.422	438.21
360.789	483.62
361.156	486.18
361.523	480.22
361.89	473.12
362.256	476.25
362.623	474.54
362.99	475.68
363.357	489.01
363.724	465.75
364.09	471.99
364.457	451.84
364.823	468.3
365.19	498.38
365.557	456.38
365.923	458.08
366.29	443.89
366.656	496.96
367.022	479.65
367.389	473.12
367.755	472.27
368.121	476.53
368.488	486.46
368.854	485.04
369.22	453.83
369.586	474.26
369.952	488.73
370.318	479.65
370.684	471.99
371.051	480.79
371.416	485.33
371.782	460.35
372.148	450.7
372.514	472.84
372.88	468.3
373.246	480.22
373.612	468.58
373.977	450.42
374.343	487.31
374.709	503.48
375.074	474.26
375.44	487.6
375.806	469.44
376.171	470
376.537	488.16
376.902	480.79
377.268	474.83
377.633	473.98
377.998	460.92
378.364	470
378.729	481.64
379.094	472.56
379.459	469.15
379.825	454.68
380.19	476.53
380.555	462.34
380.92	493.55
381.285	456.66
381.65	472.84
382.015	466.6
382.38	458.08
382.745	439.35
383.11	478.8
383.474	476.81
383.839	481.07
384.204	503.48
384.569	460.64
384.933	461.21
385.298	498.38
385.663	459.5
386.027	479.37
386.392	475.11
386.756	484.19
387.121	463.19
387.485	461.49
387.849	467.73
388.214	468.58
388.578	479.37
388.942	487.6
389.307	479.37
389.671	473.41
390.035	483.06
390.399	471.71
390.763	478.23
391.127	466.6
391.492	461.77
391.856	470
392.219	471.14
392.583	473.41
392.947	453.83
393.311	483.34
393.675	469.15
394.039	461.21
394.403	447.58
394.766	475.11
395.13	449.57
395.494	481.64
395.857	487.31
396.221	471.14
396.584	505.75
396.948	473.69
397.311	453.83
397.675	485.33
398.038	489.01
398.401	471.14
398.765	460.35
399.128	475.96
399.491	471.14
399.854	483.06
400.218	485.61
400.581	481.35
400.944	505.75
401.307	484.19
401.67	483.06
402.033	476.53
402.396	457.23
402.759	472.27
403.122	459.22
403.485	470.29
403.847	462.06
404.21	497.53
404.573	461.49
404.936	460.07
405.298	478.52
405.661	461.21
406.023	485.04
406.386	468.87
406.749	489.58
407.111	486.74
407.473	464.61
407.836	483.91
408.198	441.33
408.561	487.88
408.923	471.42
409.285	459.22
409.647	465.18
410.009	493.84
410.372	454.11
410.734	475.39
411.096	489.3
411.458	492.99
411.82	489.01
412.182	477.95
412.544	468.3
412.906	476.25
413.267	476.81
413.629	467.17
413.991	426
414.353	487.88
414.714	456.66
415.076	466.88
415.438	465.46
415.799	483.34
416.161	470.29
416.522	483.34
416.884	453.83
417.245	508.59
417.607	448.15
417.968	451.84
418.329	471.99
418.691	469.72
419.052	490.72
419.413	466.03
419.774	485.61
420.135	467.45
420.497	481.35
420.858	479.65
421.219	483.34
421.58	478.8
421.941	454.68
422.302	460.92
422.662	483.62
423.023	477.1
423.384	462.62
423.745	470.85
424.106	450.99
424.466	479.65
424.827	472.56
425.187	483.62
425.548	482.77
425.909	472.84
426.269	488.73
426.63	478.8
426.99	463.19
427.35	491.57
427.711	486.74
428.071	462.34
428.431	460.64
428.792	470.57
429.152	471.42
429.512	459.22
429.872	478.23
430.232	463.76
430.592	455.81
430.952	483.62
431.312	487.88
431.672	446.73
432.032	461.77
432.392	447.01
432.752	453.26
433.111	463.76
433.471	493.84
433.831	477.95
434.19	468.02
434.55	463.48
434.91	487.31
435.269	488.45
435.629	481.64
435.988	466.03
436.348	473.41
436.707	479.08
437.066	488.45
437.426	458.08
437.785	462.62
438.144	449
438.503	483.91
438.862	438.78
439.222	466.6
439.581	485.04
439.94	484.19
440.299	458.37
440.658	458.65
441.017	462.06
441.376	445.59
441.734	499.51
442.093	447.3
442.452	491
442.811	477.38
443.169	473.69
443.528	449.85
443.887	478.52
444.245	478.52
444.604	460.92
444.962	477.95
445.321	464.04
445.679	469.15
446.038	463.19
446.396	489.3
446.754	470.85
447.112	451.55
447.471	488.45
447.829	460.64
448.187	452.41
448.545	469.44
448.903	470.85
449.261	473.41
449.619	475.96
449.977	457.8
450.335	474.83
450.693	455.53
451.051	460.92
451.409	462.62
451.766	469.72
452.124	491
452.482	470
452.839	442.47
453.197	473.41
453.555	463.19
453.912	453.83
454.27	478.52
454.627	479.37
454.984	491
455.342	471.71
455.699	444.17
456.056	475.68
456.414	483.06
456.771	468.02
457.128	449.28
457.485	431.97
457.842	468.02
458.199	475.11
458.556	483.91
458.913	460.92
459.27	491.57
459.627	453.83
459.984	453.83
460.341	457.23
460.697	474.83
461.054	462.91
461.411	450.99
461.767	482.77
462.124	482.2
462.481	473.98
462.837	463.19
463.194	496.96
463.55	482.2
463.907	465.75
464.263	470.85
464.619	464.04
464.976	454.68
465.332	446.44
465.688	473.69
466.044	475.11
466.4	461.49
466.756	454.68
467.112	485.04
467.468	483.91
467.824	457.52
468.18	496.11
468.536	480.5
468.892	470.29
469.248	450.99
469.604	457.8
469.959	492.99
470.315	480.79
470.671	456.95
471.026	471.42
471.382	485.33
471.737	483.62
472.093	495.26
472.448	455.53
472.804	476.81
473.159	453.83
473.514	496.96
473.87	473.69
474.225	456.38
474.58	470
474.935	484.19
475.29	456.95
475.645	485.61
476	483.06
476.355	478.8
476.71	468.87
477.065	463.19
477.42	453.83
477.775	458.93
478.13	458.65
478.485	484.76
478.839	474.26
479.194	480.5
479.549	496.39
479.903	456.1
480.258	456.95
480.612	452.69
480.967	474.26
481.321	506.04
481.675	488.73
482.03	458.08
482.384	455.24
482.738	448.43
483.093	474.83
483.447	454.11
483.801	474.26
484.155	469.44
484.509	481.35
484.863	471.42
485.217	487.88
485.571	492.14
485.925	445.88
486.279	480.79
486.632	470.85
486.986	463.76
487.34	459.79
487.694	450.99
488.047	453.54
488.401	466.31
488.754	486.74
489.108	445.03
489.461	468.87
489.815	452.97
490.168	476.25
490.522	471.42
490.875	481.35
491.228	468.58
491.581	473.41
491.935	484.76
492.288	476.53
492.641	491.28
492.994	464.33
493.347	481.07
493.7	495.26
494.053	455.24
494.406	476.25
494.759	456.95
495.111	466.31
495.464	476.53
495.817	444.74
496.169	452.97
496.522	499.79
496.875	473.12
497.227	484.19
497.58	481.92
497.932	473.12
498.285	482.49
498.637	467.45
498.989	502.92
499.342	445.59
499.694	468.02
500.046	481.64
500.398	485.33
500.751	490.72
501.103	466.31
501.455	459.5
501.807	447.01
502.159	470.57
502.511	465.46
502.862	463.19
503.214	472.27
503.566	464.33
503.918	456.95
504.27	458.37
504.621	466.88
504.973	450.42
505.324	471.71
505.676	493.55
506.027	474.83
506.379	463.76
506.73	450.14
507.082	468.02
507.433	479.94
507.784	496.11
508.136	480.5
508.487	494.12
508.838	465.75
509.189	472.27
509.54	478.8
509.891	457.52
510.242	472.84
510.593	502.92
510.944	495.26
511.295	456.66
511.646	469.72
511.996	483.62
512.347	460.35
512.698	451.84
513.049	471.14
513.399	493.55
513.75	453.83
514.1	471.42
514.451	471.14
514.801	462.34
515.152	476.25
515.502	489.58
515.852	451.55
516.202	478.8
516.553	456.38
516.903	457.52
517.253	460.64
517.603	458.65
517.953	454.39
518.303	456.95
518.653	472.27
519.003	478.52
519.353	445.59
519.703	467.17
520.052	459.79
520.402	487.6
520.752	470.85
521.102	492.7
521.451	468.3
521.801	471.14
522.15	456.38
522.5	487.31
522.849	464.33
523.199	478.52
523.548	488.45
523.897	481.92
524.246	451.27
524.596	488.73
524.945	483.91
525.294	482.77
525.643	466.6
525.992	467.73
526.341	461.21
526.69	481.92
527.039	470.85
527.388	426
527.737	491.85
528.086	471.99
528.434	457.52
528.783	468.58
529.132	450.42
529.48	461.49
529.829	458.93
530.177	456.38
530.526	477.1
530.874	462.91
531.223	463.48
531.571	477.1
531.919	456.1
532.268	488.16
532.616	463.19
532.964	488.16
533.312	473.69
533.66	463.19
534.008	463.48
534.356	458.93
534.704	478.52
535.052	453.26
535.4	451.27
535.748	457.8
536.095	483.06
536.443	481.64
536.791	458.93
537.139	469.72
537.486	473.69
537.834	462.06
538.181	482.49
538.529	450.99
538.876	476.81
539.223	480.5
539.571	482.2
539.918	483.06
540.265	452.97
540.613	477.95
540.96	456.95
541.307	495.26
541.654	466.6
542.001	476.53
542.348	498.66
542.695	496.39
543.042	469.44
543.388	471.71
543.735	473.41
544.082	488.16
544.429	464.61
544.775	470
545.122	468.02
545.469	483.06
545.815	463.19
546.162	458.37
546.508	462.91
546.854	469.44
547.201	457.23
547.547	470.85
547.893	451.84
548.24	447.3
548.586	472.56
548.932	499.51
549.278	493.55
549.624	464.89
549.97	442.47
550.316	453.54
550.662	474.54
551.008	462.06
551.353	461.49
551.699	466.31
552.045	480.79
552.391	467.45
552.736	476.81
553.082	455.24
553.427	462.34
553.773	431.11
554.118	441.05
554.464	445.31
554.809	462.91
555.154	461.21
555.5	469.72
555.845	448.43
556.19	466.88
556.535	482.77
556.88	484.19
557.225	470.57
557.57	463.76
557.915	504.05
558.26	461.21
558.605	479.08
558.95	469.15
559.295	454.11
559.639	471.99
559.984	482.49
560.329	446.16
560.673	493.55
561.018	470.85
561.362	472.84
561.707	445.31
562.051	466.88
562.395	471.42
562.74	485.33
563.084	481.07
563.428	481.35
563.772	499.79
564.117	487.31
564.461	449.28
564.805	467.17
565.149	463.19
565.493	478.23
565.836	479.08
566.18	462.34
566.524	475.68
566.868	461.49
567.212	456.95
567.555	464.33
567.899	464.04
568.242	466.31
568.586	460.35
568.929	474.83
569.273	438.5
569.616	468.02
569.96	475.11
570.303	462.06
570.646	429.98
570.989	490.43
571.333	460.92
571.676	474.83
572.019	466.6
572.362	466.03
572.705	457.52
573.048	469.72
573.391	460.07
573.733	460.35
574.076	456.95
574.419	461.21
574.762	450.14
575.104	462.91
575.447	458.65
575.789	469.44
576.132	489.01
576.474	477.66
576.817	466.31
577.159	458.08
577.501	468.3
577.844	476.81
578.186	475.96
578.528	469.72
578.87	450.99
579.212	496.39
579.554	502.06
579.896	474.26
580.238	501.78
580.58	480.22
580.922	477.38
581.264	490.72
581.606	465.46
581.947	482.77
582.289	451.55
582.631	459.22
582.972	429.13
583.314	458.37
583.655	482.77
583.997	433.1
584.338	474.54
584.679	457.52
585.021	474.54
585.362	471.71
585.703	451.84
586.044	493.84
586.385	455.81
586.726	505.47
587.067	473.69
587.408	489.58
587.749	481.92
588.09	468.87
588.431	462.06
588.772	490.43
589.113	483.34
589.453	470.57
589.794	453.83
590.134	476.53
590.475	466.03
590.815	495.82
591.156	446.16
591.496	496.39
591.837	488.16
592.177	474.54
592.517	465.75
592.857	485.61
593.198	466.88
593.538	482.2
593.878	456.66
594.218	497.81
594.558	494.4
594.898	466.6
595.237	501.78
595.577	447.86
595.917	471.71
596.257	467.45
596.596	473.98
596.936	486.74
597.276	471.14
597.615	461.21
597.955	466.31
598.294	465.75
598.633	483.06
598.973	467.73
599.312	499.51
599.651	471.42
599.991	470.29
600.33	487.6
600.669	451.27
601.008	469.72
601.347	470.29
601.686	460.92
602.025	457.52
602.364	485.33
602.702	478.8
603.041	463.48
603.38	475.96
603.719	460.35
604.057	458.93
604.396	473.98
604.734	467.17
605.073	477.38
605.411	478.23
605.75	452.41
606.088	454.68
606.426	471.71
606.764	492.14
607.103	462.62
607.441	470.57
607.779	439.63
608.117	475.68
608.455	470.85
608.793	471.71
609.131	436.79
609.469	461.49
609.806	479.65
610.144	475.11
610.482	471.14
610.819	468.3
611.157	458.65
611.495	468.02
611.832	464.89
612.17	451.55
612.507	488.16
612.844	481.35
613.182	483.34
613.519	463.48
613.856	472.27
614.193	462.91
614.53	458.37
614.867	479.94
615.205	472.27
615.541	445.31
615.878	473.41
616.215	460.35
616.552	450.14
616.889	454.11
617.226	454.39
617.562	473.98
617.899	449.28
618.235	457.23
618.572	473.12
618.908	481.92
619.245	486.18
619.581	466.03
619.918	469.44
620.254	456.1
620.59	481.07
620.926	480.79
621.262	424.87
621.599	457.8
621.935	458.93
622.271	462.62
622.606	472.27
622.942	499.23
623.278	418.9
623.614	473.69
623.95	491.57
624.285	447.01
624.621	465.46
624.957	466.88
625.292	477.38
625.628	466.88
625.963	443.89
626.299	474.54
626.634	474.26
626.969	473.41
627.304	466.31
627.64	470.29
627.975	466.6
628.31	473.69
628.645	481.07
628.98	481.64
629.315	461.49
629.65	446.16
629.985	455.24
630.319	456.66
630.654	453.83
630.989	463.76
631.323	442.75
631.658	501.21
631.993	462.62
632.327	471.71
632.662	478.52
632.996	459.79
633.33	463.76
633.665	483.91
633.999	462.34
634.333	466.88
634.667	475.68
635.001	465.18
635.335	469.72
635.669	482.2
636.003	460.64
636.337	476.81
636.671	460.92
637.005	470.57
637.339	463.76
637.672	488.16
638.006	446.16
638.339	455.53
638.673	467.73
639.006	455.24
639.34	475.96
639.673	454.96
640.007	461.21
640.34	474.83
640.673	454.39
641.006	443.89
641.34	454.68
641.673	462.62
642.006	462.62
642.339	472.56
642.672	458.37
643.004	467.73
643.337	458.37
643.67	479.08
644.003	455.81
644.336	452.41
644.668	462.91
645.001	449.85
645.333	456.1
645.666	464.33
645.998	448.15
646.331	485.04
646.663	450.42
646.995	482.49
647.327	457.52
647.66	454.39
647.992	460.64
648.324	454.11
648.656	481.35
648.988	465.46
649.32	471.99
649.652	466.03
649.983	467.73
650.315	457.23
650.647	488.45
650.979	463.19
651.31	459.5
651.642	451.27
651.973	472.84
652.305	472.84
652.636	470.57
652.967	479.08
653.299	475.39
653.63	477.1
653.961	472.84
654.292	472.27
654.623	464.89
654.955	487.88
655.286	493.27
655.616	482.77
655.947	496.67
656.278	505.18
656.609	482.49
656.94	473.12
657.27	479.94
657.601	454.96
657.932	483.06
658.262	451.55
658.593	468.58
658.923	484.76
659.254	464.61
659.584	463.19
659.914	465.18
660.244	486.18
660.575	455.24
660.905	453.54
661.235	474.83
661.565	461.49
661.895	467.17
662.225	471.14
662.555	451.55
662.884	439.92
663.214	458.08
663.544	450.42
663.873	476.25
664.203	464.89
664.533	503.48
664.862	446.16
665.192	470
665.521	453.83
665.85	458.93
666.18	460.64
666.509	470.29
666.838	466.03
667.167	482.49
667.496	439.63
667.825	434.52
668.154	471.71
668.483	452.12
668.812	444.17
669.141	460.64
669.47	462.06
669.798	466.03
670.127	460.64
670.456	433.95
670.784	478.23
671.113	454.96
671.441	449.85
671.77	444.46
672.098	468.02
672.426	461.21
672.755	478.52
673.083	475.11
673.411	442.75
673.739	435.66
674.067	467.17
674.395	460.35
674.723	461.21
675.051	441.62
675.379	452.12
675.706	461.77
676.034	419.19
676.362	455.81
676.689	469.44
677.017	454.11
677.344	455.53
677.672	468.87
677.999	455.81
678.327	468.02
678.654	447.58
678.981	485.33
679.308	466.88
679.636	467.45
679.963	475.96
680.29	478.52
680.617	450.14
680.944	458.65
681.271	475.96
681.597	472.56
681.924	473.12
682.251	444.74
682.578	460.92
682.904	473.69
683.231	449
683.557	435.94
683.884	449.57
684.21	462.62
684.536	468.87
684.863	473.69
685.189	472.56
685.515	463.48
685.841	456.95
686.167	453.26
686.493	457.8
686.819	427.71
687.145	454.68
687.471	438.78
687.797	483.06
688.123	458.65
688.448	467.17
688.774	459.22
689.1	460.35
689.425	481.64
689.751	472.84
690.076	459.5
690.402	443.89
690.727	478.23
691.052	446.16
691.377	482.77
691.703	452.12
692.028	441.62
692.353	477.38
692.678	462.62
693.003	471.14
693.328	466.31
693.652	460.64
693.977	443.89
694.302	468.3
694.627	462.62
694.951	447.3
695.276	470.29
695.6	464.04
695.925	459.5
696.249	468.58
696.574	456.95
696.898	452.69
697.222	452.97
697.546	467.73
697.871	484.76
698.195	464.33
698.519	466.6
698.843	473.69
699.167	487.88
699.491	454.68
699.814	456.95
700.138	472.56
700.462	456.38
700.786	451.84
701.109	463.48
701.433	479.65
701.756	470.57
702.08	470.85
702.403	467.73
702.726	468.87
703.05	474.54
703.373	466.88
703.696	445.59
704.019	461.21
704.342	485.33
704.665	458.37
704.988	475.68
705.311	465.18
705.634	486.18
705.957	447.3
706.28	466.03
706.602	457.23
706.925	495.54
707.247	492.42
707.57	451.55
707.892	445.88
708.215	450.42
708.537	462.34
708.859	444.17
709.182	448.15
709.504	441.9
709.826	466.31
710.148	459.79
710.47	481.92
710.792	440.2
711.114	450.7
711.436	436.51
711.758	427.42
712.079	475.11
712.401	440.48
712.723	456.66
713.044	437.93
713.366	470
713.687	458.93
714.009	448.15
714.33	465.46
714.652	458.37
714.973	446.73
715.294	474.26
715.615	446.44
715.936	454.39
716.257	453.26
716.578	457.8
716.899	434.52
717.22	477.95
717.541	453.54
717.862	439.06
718.182	437.36
718.503	467.45
718.824	447.3
719.144	466.31
719.465	460.07
719.785	495.54
720.105	462.62
720.426	444.74
720.746	466.88
721.066	462.34
721.386	458.93
721.706	462.34
722.026	487.03
722.346	480.22
722.666	435.09
722.986	473.98
723.306	453.26
723.626	445.88
723.946	469.15
724.265	425.15
724.585	456.38
724.904	448.15
725.224	456.95
725.543	461.49
725.863	450.14
726.182	467.45
726.501	474.26
726.82	436.22
727.14	484.76
727.459	469.72
727.778	466.03
728.097	460.35
728.416	471.42
728.734	478.23
729.053	484.76
729.372	462.62
729.691	437.93
730.009	464.04
730.328	449
730.647	469.15
730.965	442.19
731.283	459.22
731.602	455.81
731.92	466.31
732.238	471.42
732.557	458.93
732.875	465.46
733.193	420.61
733.511	462.06
733.829	472.27
734.147	472.84
734.465	450.42
734.782	460.92
735.1	477.1
735.418	445.88
735.735	459.22
736.053	458.93
736.371	468.3
736.688	435.09
737.005	467.17
737.323	449.85
737.64	451.55
737.957	441.05
738.274	468.58
738.592	477.38
738.909	468.3
739.226	471.71
739.543	473.98
739.86	445.59
740.176	480.79
740.493	457.52
740.81	455.53
741.127	439.06
741.443	454.11
741.76	453.26
742.076	443.32
742.393	463.48
742.709	460.07
743.025	454.39
743.342	456.38
743.658	465.46
743.974	450.7
744.29	453.54
744.606	450.42
744.922	468.58
745.238	465.75
745.554	466.03
745.87	447.01
746.186	439.92
746.501	447.01
746.817	422.59
747.132	456.1
747.448	450.99
747.763	458.08
748.079	464.89
748.394	469.72
748.71	473.69
749.025	466.03
749.34	466.03
749.655	456.66
749.97	476.81
750.285	487.03
750.6	470
750.915	472.84
751.23	461.77
751.545	449.57
751.859	472.27
752.174	447.3
752.489	450.7
752.803	459.5
753.118	457.52
753.432	450.14
753.747	436.79
754.061	442.75
754.375	450.42
754.689	449.57
755.004	464.33
755.318	445.88
755.632	461.49
755.946	445.88
756.26	468.3
756.573	464.04
756.887	464.04
757.201	462.91
757.515	472.84
757.828	444.17
758.142	463.19
758.455	459.5
758.769	452.69
759.082	441.05
759.396	446.44
759.709	434.8
760.022	438.5
760.335	449.85
760.648	454.96
760.962	448.15
761.275	456.95
761.587	491
761.9	454.96
762.213	461.77
762.526	458.37
762.839	459.79
763.151	443.89
763.464	420.61
763.776	451.55
764.089	457.52
764.401	464.33
764.714	477.1
765.026	475.11
765.338	464.89
765.65	464.04
765.962	449.28
766.275	453.83
766.587	433.67
766.898	467.17
767.21	458.37
767.522	456.38
767.834	462.34
768.146	435.37
768.457	447.3
768.769	473.12
769.08	447.3
769.392	439.92
769.703	442.19
770.015	465.46
770.326	461.49
770.637	455.24
770.948	437.93
771.26	464.61
771.571	459.5
771.882	494.69
772.193	451.55
772.504	458.93
772.814	449.57
773.125	438.21
773.436	446.73
773.747	471.71
774.057	464.04
774.368	469.72
774.678	455.81
774.989	473.98
775.299	441.9
775.609	454.96
775.919	481.64
776.23	439.06
776.54	450.7
776.85	469.15
777.16	454.39
777.47	468.02
777.78	472.27
778.089	456.38
778.399	469.44
778.709	466.88
779.019	456.66
779.328	467.45
779.638	473.41
779.947	462.62
780.257	459.22
780.566	451.55
780.875	478.52
781.185	455.24
781.494	455.53
781.803	463.19
782.112	482.2
782.421	458.65
782.73	466.03
783.039	469.15
783.348	470
783.656	439.06
783.965	460.64
784.274	460.92
784.582	463.19
784.891	465.46
785.199	463.76
785.508	477.38
785.816	445.59
786.124	457.52
786.432	454.68
786.741	456.95
787.049	465.46
787.357	450.7
787.665	457.8
787.973	444.17
788.281	464.04
788.588	465.75
788.896	461.49
789.204	455.81
789.511	456.1
789.819	456.66
790.126	453.83
790.434	460.35
790.741	482.2
791.049	465.18
791.356	449
791.663	437.64
791.97	450.42
792.277	450.42
792.584	436.22
792.891	450.42
793.198	455.53
793.505	460.07
793.812	452.12
794.119	464.04
794.425	470
794.732	459.22
795.038	455.81
795.345	461.21
795.651	488.73
795.958	449
796.264	453.83
796.57	452.41
796.876	465.46
797.183	457.52
797.489	445.88
797.795	460.07
798.101	467.45
798.406	481.35
798.712	460.64
799.018	443.89
799.324	456.95
799.629	445.31
799.935	428.84
800.24	458.37
800.546	445.31
800.851	458.37
801.157	458.65
801.462	435.94
801.767	473.41
802.072	477.38
802.377	453.83
802.682	441.33
802.987	474.83
803.292	470.85
803.597	465.75
803.902	447.86
804.207	449.57
804.511	446.16
804.816	441.62
805.12	445.59
805.425	450.99
805.729	476.81
806.034	455.53
806.338	450.42
806.642	437.08
806.946	449
807.251	448.15
807.555	450.42
807.859	475.11
808.162	448.43
808.466	441.05
808.77	466.88
809.074	477.95
809.378	466.03
809.681	460.92
809.985	441.33
810.288	449.85
810.592	446.73
810.895	474.54
811.198	476.25
811.502	450.42
811.805	455.53
812.108	462.62
812.411	433.95
812.714	452.41
813.017	437.36
813.32	439.63
813.623	486.46
813.926	445.31
814.228	439.35
814.531	457.8
814.833	461.49
815.136	463.76
815.438	475.68
815.741	443.61
816.043	471.99
816.345	472.84
816.648	437.64
816.95	470
817.252	440.2
817.554	472.27
817.856	453.54
818.158	447.3
818.46	448.43
818.761	465.75
819.063	462.91
819.365	454.68
819.666	455.24
819.968	437.36
820.269	477.66
820.571	457.8
820.872	466.6
821.173	444.46
821.475	456.38
821.776	429.41
822.077	439.35
822.378	464.33
822.679	422.31
822.98	465.18
823.281	480.22
823.581	450.7
823.882	467.17
824.183	452.12
824.483	462.34
824.784	447.86
825.084	461.77
825.385	459.79
825.685	463.76
825.985	460.07
826.286	479.08
826.586	461.21
826.886	475.11
827.186	462.06
827.486	455.81
827.786	439.92
828.086	486.46
828.386	458.08
828.685	443.61
828.985	471.99
829.285	463.76
829.584	459.22
829.884	452.69
830.183	447.58
830.482	465.46
830.782	453.54
831.081	442.75
831.38	447.58
831.679	445.88
831.978	446.73
832.277	460.07
832.576	504.9
832.875	459.5
833.174	442.75
833.472	439.35
833.771	465.75
834.07	432.53
834.368	461.21
834.667	453.26
834.965	477.1
835.263	447.86
835.562	460.92
835.86	479.37
836.158	493.27
836.456	449.28
836.754	460.92
837.052	475.96
837.35	462.06
837.648	446.16
837.946	470.57
838.243	443.32
838.541	459.5
838.839	440.2
839.136	426
839.434	429.13
839.731	452.97
840.028	434.24
840.326	450.42
840.623	471.99
840.92	440.48
841.217	469.72
841.514	458.08
841.811	466.03
842.108	444.46
842.405	441.9
842.701	444.17
842.998	443.32
843.295	435.37
843.591	456.38
843.888	475.11
844.184	470.29
844.481	431.97
844.777	448.15
845.073	455.24
845.369	465.46
845.665	409.25
845.962	424.58
846.258	442.19
846.553	484.19
846.849	447.86
847.145	442.75
847.441	470.85
847.737	442.47
848.032	450.14
848.328	421.46
848.623	454.11
848.919	475.68
849.214	452.97
849.509	460.07
849.805	467.73
850.1	461.49
850.395	438.5
850.69	460.35
850.985	444.74
851.28	447.3
851.575	441.05
851.869	446.44
852.164	475.11
852.459	440.2
852.753	435.09
853.048	468.02
853.342	476.53
853.637	434.52
853.931	464.33
854.225	471.14
854.52	452.69
854.814	435.09
855.108	455.81
855.402	481.07
855.696	464.89
855.99	447.3
856.283	474.26
856.577	458.93
856.871	460.64
857.164	452.69
857.458	462.06
857.751	460.35
858.045	426.57
858.338	479.94
858.632	474.26
858.925	450.7
859.218	468.02
859.511	460.92
859.804	444.74
860.097	461.21
860.39	465.46
860.683	476.81
860.976	456.66
861.268	448.43
861.561	434.52
861.854	460.64
862.146	452.97
862.439	465.18
862.731	470.29
863.023	438.78
863.316	462.06
863.608	444.17
863.9	446.16
864.192	441.62
864.484	458.93
864.776	462.06
865.068	453.54
865.36	443.32
865.651	439.06
865.943	469.44
866.235	449.57
866.526	449.85
866.818	473.12
867.109	449
867.4	465.75
867.692	460.07
867.983	447.3
868.274	445.31
868.565	442.47
868.856	451.55
869.147	441.9
869.438	448.72
869.729	446.16
870.02	439.63
870.31	448.15
870.601	426
870.892	431.68
871.182	466.31
871.473	457.8
871.763	458.65
872.053	471.71
872.343	456.1
872.634	449.85
872.924	449.85
873.214	474.54
873.504	456.1
873.794	438.5
874.084	446.44
874.373	452.69
874.663	445.31
874.953	456.1
875.242	439.35
875.532	466.31
875.821	433.95
876.111	467.17
876.4	460.64
876.689	442.47
876.978	452.41
877.268	465.18
877.557	450.99
877.846	453.83
878.134	471.71
878.423	471.71
878.712	471.71
