Data from FLMS007011_12-15-18-716.txt Node
Date: Thu Apr 21 12:15:18 MDT 2016
User: lab_user
Spectrometer: FLMS00701
Autoset integration time: false
Trigger mode: 0
Integration Time (sec): 5.000000E-3
Scans to average: 10
Electric dark correction enabled: true
Nonlinearity correction enabled: true
Boxcar width: 0
XAxis mode: Wavelengths
Stop averaging: false
Number of Pixels in Spectrum: 2048
>>>>>Begin Spectral Data<<<<<
178.41	15.52
178.791	15.52
179.172	15.52
179.553	-55.35
179.934	-59.64
180.316	-55.06
180.697	-68.22
181.078	-47.63
181.459	-44.77
181.84	-19.33
182.221	-5.9
182.602	-22.19
182.983	32.09
183.364	10.95
183.744	55.5
184.125	74.34
184.506	53.21
184.887	105.15
185.268	117.99
185.648	158.76
186.029	193.24
186.41	202.36
186.791	218.88
187.171	263.58
187.552	397.51
187.932	392.11
188.313	402.33
188.694	448.34
189.074	463.38
189.455	467.07
189.835	503.39
190.216	510.48
190.596	549.89
190.977	558.68
191.357	545.92
191.737	589.85
192.118	574.83
192.498	580.5
192.878	596.37
193.258	591.83
193.639	598.35
194.019	611.66
194.399	655.55
194.779	611.1
195.159	621.01
195.54	626.67
195.92	631.48
196.3	663.47
196.68	637.71
197.06	676.49
197.44	669.7
197.82	658.66
198.2	673.94
198.58	661.49
198.959	684.13
199.339	685.55
199.719	664.61
200.099	694.6
200.479	694.6
200.858	722.6
201.238	700.26
201.618	713.55
201.998	778.29
202.377	729.95
202.757	751.16
203.136	794.67
203.516	747.2
203.896	782.53
204.275	771.22
204.655	777.44
205.034	810.49
205.414	847.2
205.793	839.58
206.172	870.63
206.552	853.41
206.931	839.86
207.31	869.5
207.69	868.09
208.069	883.32
208.448	923.38
208.827	930.43
209.207	931.84
209.586	977.22
209.965	992.72
210.344	959.47
210.723	1038.34
211.102	1028.21
211.481	1087.6
211.86	1078.31
212.239	1050.17
212.618	1106.44
212.997	1110.95
213.376	1088.44
213.755	1152.56
214.134	1154.53
214.513	1177.86
214.891	1176.45
215.27	1210.45
215.649	1241.62
216.028	1297.19
216.406	1316.82
216.785	1368.69
217.164	1395.59
217.542	1450.21
217.921	1501.42
218.3	1515.97
218.678	1602.91
219.057	1667.42
219.435	1682.77
219.814	1698.12
220.192	1772.58
220.57	1751.95
220.949	1859.78
221.327	1895.69
221.705	1924.63
222.084	1990.81
222.462	2014.98
222.84	2108.01
223.218	2192.6
223.597	2246.91
223.975	2312.81
224.353	2382.8
224.731	2476.48
225.109	2629.33
225.487	2718.58
225.865	2879.48
226.243	3012.9
226.621	3130.21
226.999	3299.83
227.377	3480.56
227.755	3579.49
228.133	3796.01
228.511	3890.49
228.889	4011.69
229.266	4149.76
229.644	4343.22
230.022	4474.83
230.4	4599.51
230.777	4707.08
231.155	4795.99
231.533	4995.79
231.91	5098.33
232.288	5271.29
232.665	5401.52
233.043	5611.7
233.42	5777.59
233.798	5928.07
234.175	6183.9
234.553	6362.53
234.93	6595.64
235.307	6910.43
235.685	7105.6
236.062	7354.03
236.439	7631.87
236.816	7980.79
237.194	8189.62
237.571	8533.73
237.948	8782.38
238.325	9006.05
238.702	9197.4
239.079	9515.08
239.456	9683.64
239.833	9999.13
240.21	10054.63
240.587	10301.4
240.964	10445.54
241.341	10675.35
241.718	10740.25
242.095	10799.02
242.472	11006.7
242.849	11056.48
243.225	11269.9
243.602	11368.52
243.979	11478.47
244.356	11651.36
244.732	11907.46
245.109	12075.62
245.486	12169.22
245.862	12312.44
246.239	12674.51
246.615	12834.17
246.992	13075.05
247.368	13257.72
247.745	13640.59
248.121	13957.55
248.497	14039.78
248.874	14448.5
249.25	14685.13
249.626	14945.94
250.003	15285.08
250.379	15543.08
250.755	15661.06
251.131	15966.62
251.507	16022.68
251.884	16323.68
252.26	16351.93
252.636	16602.11
253.012	16737.29
253.388	16812.03
253.764	17059.43
254.14	17025.05
254.516	17042.36
254.892	17046.32
255.268	17115.32
255.643	17102.46
256.019	17211.5
256.395	17121.99
256.771	17358.57
257.147	17405.27
257.522	17436.9
257.898	17511.02
258.274	17512.5
258.649	17819.95
259.025	18056.88
259.4	17979.4
259.776	18185.17
260.151	18264.34
260.527	18560.47
260.902	18691.59
261.278	18885.74
261.653	19022.7
262.028	19159.62
262.404	19430.68
262.779	19660.53
263.154	19892.77
263.53	20110.19
263.905	20062.97
264.28	20314.52
264.655	20371.31
265.03	20259.44
265.405	20476.27
265.781	20592.78
266.156	20674.62
266.531	20660.12
266.906	20643.66
267.281	20806.34
267.655	20508.97
268.03	20537.72
268.405	20441.61
268.78	20444.32
269.155	20504.79
269.53	20136.25
269.904	20241.74
270.279	20245.18
270.654	20121.01
271.029	19912.45
271.403	19932.62
271.778	19866.45
272.152	19812.82
272.527	19738.28
272.901	19865.47
273.276	19913.92
273.65	19827.58
274.025	19862.27
274.399	19788.96
274.774	19857.1
275.148	20014.77
275.522	20018.95
275.897	20092.48
276.271	20053.13
276.645	20303.7
277.019	20529.12
277.393	20676.83
277.768	20608.02
278.142	20732.87
278.516	20831.16
278.89	20963.84
279.264	21057.45
279.638	21347.8
280.012	21404.78
280.386	21255.44
280.76	21540.59
281.133	21573.01
281.507	21624.82
281.881	21763.32
282.255	21828.63
282.629	21602.48
283.002	21590.2
283.376	21682.53
283.75	21545.26
284.123	21570.8
284.497	21525.86
284.87	21448.74
285.244	21491.48
285.618	21378.25
285.991	21146.13
286.364	21161.61
286.738	21220.32
287.111	21094.05
287.485	20940.99
287.858	20717.88
288.231	20691.83
288.605	20630.63
288.978	20738.52
289.351	20534.04
289.724	20374.5
290.097	20356.56
290.47	20256.25
290.843	20193.3
291.217	20098.38
291.59	19984.76
291.963	19949.84
292.336	19930.16
292.708	19867.93
293.081	19863.74
293.454	19855.87
293.827	19813.56
294.2	19727.21
294.573	19761.9
294.945	19713.68
295.318	19831.52
295.691	19853.66
296.064	19823.89
296.436	19872.11
296.809	20010.34
297.181	19979.1
297.554	19891.05
297.926	20072.07
298.299	20077.48
298.671	20274.2
299.044	20242.48
299.416	20260.43
299.788	20266.33
300.161	20296.32
300.533	20337.13
300.905	20408.67
301.278	20432.03
301.65	20453.17
302.022	20304.93
302.394	20117.07
302.766	20282.06
303.138	20200.43
303.51	20189.61
303.882	20199.69
304.254	20116.83
304.626	20096.91
304.998	20190.35
305.37	19778.63
305.742	20004.93
306.114	19958.69
306.485	19942.7
306.857	19933.85
307.229	19761.9
307.601	19546.1
307.972	19525.92
308.344	19445.44
308.716	19280.27
309.087	19374.55
309.459	19245.8
309.83	19200.99
310.202	19187.69
310.573	19252.94
310.945	19207.88
311.316	18978.61
311.687	18996.84
312.059	18986.98
312.43	19037.48
312.801	18963.34
313.172	18859.63
313.544	18838.2
313.915	19022.21
314.286	18865.05
314.657	19003.73
315.028	18933.78
315.399	18976.39
315.77	19155.19
316.141	19065.55
316.512	19107.91
316.883	19069.49
317.254	19191.88
317.625	19052.01
317.996	19276.33
318.366	19283.96
318.737	19318.92
319.108	19406.8
319.478	19344.03
319.849	19383.17
320.22	19478.92
320.59	19547.33
320.961	19404.83
321.331	19559.15
321.702	19503.04
322.072	19320.4
322.443	19478.18
322.813	19535.28
323.184	19339.11
323.554	19348.71
323.924	19410.49
324.295	19299.23
324.665	19135.98
325.035	19192.13
325.405	19101.26
325.775	19008.66
326.145	18890.67
326.515	18782.27
326.886	18679.76
327.256	18559.48
327.626	18199.47
327.995	17946.08
328.365	17581.17
328.735	17248.83
329.105	16914.97
329.475	16836.78
329.845	17078.22
330.215	17651.8
330.584	18145.94
330.954	18884.51
331.324	19413.69
331.693	19635.19
332.063	19582.77
332.432	19473.26
332.802	19146.33
333.171	18559.23
333.541	17989.27
333.91	17863.15
334.28	17624.89
334.649	17558.94
335.018	17470.99
335.388	17391.19
335.757	17316.55
336.126	17083.91
336.495	17238.2
336.865	17006.01
337.234	16849.9
337.603	16994.38
337.972	16850.14
338.341	16872.66
338.71	16874.64
339.079	16799.41
339.448	16873.16
339.817	16840.99
340.186	16789.27
340.554	16829.85
340.923	16817.97
341.292	16679.86
341.661	16849.65
342.029	16843.96
342.398	16758.82
342.767	16714.27
343.135	16860.04
343.504	16776.89
343.872	16958.26
344.241	17039.64
344.609	16813.77
344.978	16925.36
345.346	16979.79
345.715	17035.69
346.083	16947.13
346.451	17154.39
346.82	16987.7
347.188	17063.14
347.556	17016.89
347.924	17080.7
348.292	16986.96
348.66	17038.9
349.028	17008.23
349.396	16955.05
349.764	16964.45
350.132	16922.14
350.5	16969.15
350.868	16920.17
351.236	16850.89
351.604	16895.92
351.972	16813.52
352.34	16663.52
352.707	16650.89
353.075	16599.39
353.443	16613.01
353.81	16404.7
354.178	16411.39
354.545	16479.77
354.913	16340.03
355.28	16203.96
355.648	16348.95
356.015	16178.92
356.383	16178.42
356.75	16033.85
357.117	15947.52
357.485	16014.5
357.852	15818.47
358.219	15889.7
358.586	15744
358.954	15690.86
359.321	15644.92
359.688	15532.64
360.055	15447.41
360.422	15515.5
360.789	15322.38
361.156	15360.91
361.523	15181.12
361.89	15139.32
362.256	15131.11
362.623	14954.65
362.99	14906.1
363.357	14875.22
363.724	14851.56
364.09	14873.97
364.457	14722.76
364.823	14869.24
365.19	14730.73
365.557	14787.04
365.923	14753.91
366.29	14567.22
366.656	14677.65
367.022	14672.67
367.389	14653.72
367.755	14389.62
368.121	14422.31
368.488	14466.96
368.854	14366.91
369.22	14342.95
369.586	14260.83
369.952	14025.78
370.318	13978.79
370.684	13975.29
371.051	14054.02
371.416	13949.8
371.782	13942.3
372.148	14009.04
372.514	13935.8
372.88	13874.54
373.246	13885.54
373.612	14003.29
373.977	14083.5
374.343	14168.69
374.709	14218.88
375.074	14161.19
375.44	14098.49
375.806	14077.01
376.171	14102.24
376.537	14146.96
376.902	14162.44
377.268	14315.5
377.633	14345.45
377.998	14541.53
378.364	14586.91
378.729	14723.26
379.094	14783.56
379.459	14317
379.825	14415.32
380.19	14326.48
380.555	14139.71
380.92	13920.04
381.285	13922.3
381.65	13942.8
382.015	14105.24
382.38	14045.52
382.745	13850.53
383.11	13777.48
383.474	13924.05
383.839	13800.25
384.204	13706.17
384.569	13623.56
384.933	13606.54
385.298	13530.91
385.663	13525.65
386.027	13489.58
386.392	13555.45
386.756	13818.51
387.121	13809.01
387.485	13864.78
387.849	13985.54
388.214	13740.95
388.578	13612.55
388.942	13362.78
389.307	13374.56
389.671	13289.82
390.035	13300.1
390.399	13290.07
390.763	13428.44
391.127	13540.68
391.492	13804.75
391.856	13970.05
392.219	14346.7
392.583	14385.63
392.947	13808.25
393.311	13406.14
393.675	13242.92
394.039	13032.62
394.403	13028.86
394.766	12898.25
395.13	12768.06
395.494	12731.85
395.857	12732.86
396.221	12810.8
396.584	12961.05
396.948	13262.23
397.311	13475.05
397.675	13804.75
398.038	13781.74
398.401	13439.47
398.765	13055.22
399.128	12742.41
399.491	12387.78
399.854	12255.47
400.218	12191.92
400.581	12061.99
400.944	11963.53
401.307	11704.74
401.67	11719.66
402.033	11678.94
402.396	11581.52
402.759	11608.09
403.122	11607.59
403.485	11611.38
403.847	11758.6
404.21	11913.27
404.573	12046.09
404.936	12165.19
405.298	11955.45
405.661	11710.55
406.023	11353.56
406.386	11187.71
406.749	11049.88
407.111	11047.59
407.473	11307.93
407.836	11507.85
408.198	11660.47
408.561	11619.99
408.923	11625.3
409.285	11620.24
409.647	11463.28
410.009	11311.99
410.372	11286.38
410.734	11148.89
411.096	11173
411.458	11165.38
411.82	11402.47
412.182	11573.67
412.544	11569.37
412.906	11638.21
413.267	11788.68
413.629	11509.11
413.991	11402.22
414.353	11375.11
414.714	11204.71
415.076	11185.68
415.438	11206.49
415.799	11309.46
416.161	11204.97
416.522	11165.38
416.884	11069.43
417.245	11070.19
417.607	11084.92
417.968	11076.29
418.329	11186.7
418.691	11298.3
419.052	11321.12
419.413	11344.19
419.774	11465.05
420.135	11865.01
420.497	12357.8
420.858	12717.01
421.219	12850.01
421.58	12663.44
421.941	12231.77
422.302	11783.88
422.662	11830.64
423.023	11473.66
423.384	11493.67
423.745	11494.17
424.106	11545.57
424.466	11813.71
424.827	11550.64
425.187	11136.71
425.548	10995.52
425.909	10749.41
426.269	10846.58
426.63	10929.97
426.99	11197.1
427.35	11118.43
427.711	11093.3
428.071	11279.28
428.431	11593.92
428.792	12309.16
429.152	13204.79
429.512	13385.59
429.872	13254.96
430.232	12990.19
430.592	12355.53
430.952	11598.73
431.312	10968.59
431.672	10531.7
432.032	10477.15
432.392	10665.93
432.752	11532.16
433.111	12308.15
433.471	12366.62
433.831	11529.12
434.19	11264.83
434.55	11095.33
434.91	10915.99
435.269	11055.21
435.629	11088.47
435.988	11255.7
436.348	11075.53
436.707	10717.86
437.066	10475.11
437.426	10615.51
437.785	10749.16
438.144	10792.16
438.503	10582.4
438.862	10548.77
439.222	10361.11
439.581	10125.69
439.94	10251.62
440.299	10804.11
440.658	11457.7
441.017	11655.16
441.376	11583.54
441.734	11303.88
442.093	11066.13
442.452	11087.97
442.811	11339.12
443.169	11357.62
443.528	11107.26
443.887	10902.77
444.245	10761.37
444.604	10583.67
444.962	10456.25
445.321	10357.03
445.679	10419.78
446.038	10631.3
446.396	10361.37
446.754	10109.33
447.112	9976.11
447.471	9811.26
447.829	9670.05
448.187	9733.62
448.545	9723.11
448.903	9782.31
449.261	9691.33
449.619	9595.67
449.977	9517.39
450.335	9224.16
450.693	9241.14
451.051	9192.25
451.409	9165.23
451.766	9185.56
452.124	9006.05
452.482	8695.08
452.839	8622.45
453.197	8489.22
453.555	8398.07
453.912	8448.83
454.27	8580.3
454.627	8883.3
454.984	8901.1
455.342	8812.07
455.699	8590.38
456.056	8565.81
456.414	8704.64
456.771	9020.99
457.128	9156.73
457.485	9321.89
457.842	9227.76
458.199	9273.55
458.556	9375.1
458.913	9446.27
459.27	9614.65
459.627	9419.3
459.984	9381.01
460.341	9484.28
460.697	9295.67
461.054	9041.87
461.411	8570.73
461.767	8286.63
462.124	8194.03
462.481	8517.17
462.837	8709.8
463.194	9128.93
463.55	9057.58
463.907	9477.86
464.263	9816.89
464.619	10138.21
464.976	10523.54
465.332	10721.93
465.688	10376.93
466.044	9609.26
466.4	9241.14
466.756	9013.78
467.112	9039.55
467.468	9039.03
467.824	9026.66
468.18	8774.89
468.536	8685.26
468.892	8450.13
469.248	8372.68
469.604	8238.14
469.959	8290.78
470.315	8230.09
470.671	8293.37
471.026	8440.03
471.382	8528.04
471.737	8676.21
472.093	8929.99
472.448	9236.77
472.804	9456.8
473.159	9637.74
473.514	9727.47
473.87	9753.87
474.225	10251.62
474.58	10718.37
474.935	10802.58
475.29	10652.69
475.645	10451.15
476	10352.7
476.355	10272.81
476.71	10099.88
477.065	10515.64
477.42	10909.63
477.775	11088.47
478.13	10918.02
478.485	10969.61
478.839	11055.72
479.194	11621
479.549	12070.07
479.903	12201
480.258	11912
480.612	12020.34
480.967	12404.66
481.321	12775.35
481.675	12438.92
482.03	11895.33
482.384	11531.4
482.738	11708.53
483.093	11874.61
483.447	12316.22
483.801	12940.46
484.155	13431.7
484.509	14913.32
484.863	30646.65
485.217	43672.44
485.571	48456.43
485.925	34988.06
486.279	23107.71
486.632	17692.8
486.986	15212.96
487.34	13403.63
487.694	12437.91
488.047	12025.64
488.401	12014.53
488.754	11880.93
489.108	11568.86
489.461	11404.75
489.815	11027.53
490.168	11210.29
490.522	11340.89
490.875	11364.72
491.228	11185.43
491.581	11257.73
491.935	11232.62
492.288	11019.4
492.641	11221.96
492.994	11182.64
493.347	11397.91
493.7	11433.13
494.053	11386
494.406	11264.32
494.759	10679.17
495.111	10868.7
495.464	11814.97
495.817	12620.42
496.169	12258.24
496.522	11483.28
496.875	10465.68
497.227	10087.86
497.58	9990.18
497.932	10273.32
498.285	10321.05
498.637	10747.38
498.989	11102.95
499.342	11134.93
499.694	10719.89
500.046	10357.8
500.398	10653.2
500.751	10983.33
501.103	10999.84
501.455	11023.97
501.807	11018.64
502.159	11023.97
502.511	10970.12
502.862	10926.15
503.214	10699.53
503.566	10283.28
503.918	9966.13
504.27	9930.31
504.621	9920.33
504.973	9802.55
505.324	9889.87
505.676	10127.99
506.027	10274.34
506.379	9838.4
506.73	9359.94
507.082	9255.8
507.433	9580.02
507.784	9820.48
508.136	9613.63
508.487	9511.23
508.838	9180.16
509.189	9158.02
509.54	9366.62
509.891	9225.7
510.242	9251.17
510.593	9101.89
510.944	9074.07
511.295	8832.98
511.646	8581.33
511.996	8587.28
512.347	8660.19
512.698	8820.08
513.049	8651.4
513.399	8643.65
513.75	8652.18
514.1	8509.41
514.451	8138.23
514.801	8010.42
515.152	8187.28
515.502	8414.65
515.852	8669.75
516.202	8678.8
516.553	8547.96
516.903	8320.33
517.253	8048.36
517.603	8001.58
517.953	8004.44
518.303	8350.4
518.653	8660.96
519.003	8605.64
519.353	8140.3
519.703	7674.89
520.052	7527.5
520.402	7571.61
520.752	7870.24
521.102	7766.62
521.451	7600.83
521.801	7582.31
522.15	7689.23
522.5	7843.17
522.849	7908.49
523.199	8053.82
523.548	8177.42
523.897	8184.69
524.246	7987.03
524.596	7761.93
524.945	7703.83
525.294	7791.36
525.643	7797.61
525.992	7862.95
526.341	7913.95
526.69	7912.65
527.039	7811.41
527.388	7595.35
527.737	7829.64
528.086	8530.63
528.434	8987.49
528.783	8903.16
529.132	8418.53
529.48	8160.03
529.829	8046.8
530.177	7950.88
530.526	7880.65
530.874	7916.81
531.223	7952.44
531.571	8027.05
531.919	7928.78
532.268	8350.66
532.616	8929.47
532.964	9468.61
533.312	9406.71
533.66	9413.9
534.008	9375.87
534.356	9409.02
534.704	9377.67
535.052	9103.69
535.4	8724.01
535.748	8379.42
536.095	7919.93
536.443	7730.93
536.791	8002.1
537.139	8377.87
537.486	8813.62
537.834	9053.98
538.181	9170.63
538.529	9109.1
538.876	9160.08
539.223	8948.04
539.571	8561.41
539.918	8474.98
540.265	8743.9
540.613	9164.45
540.96	9058.87
541.307	8913.22
541.654	8850.01
542.001	8908.32
542.348	8867.56
542.695	8809.49
543.042	9064.54
543.388	9309.04
543.735	9383.32
544.082	9390.01
544.429	9367.39
544.775	9132.79
545.122	8585.47
545.469	8180.28
545.815	8155.62
546.162	8295.19
546.508	8559.34
546.854	9164.71
547.201	9950.01
547.547	10355.25
547.893	9985.06
548.24	9028.47
548.586	8173.01
548.932	7783.29
549.278	7614.92
549.624	7847.86
549.97	7840.31
550.316	7446.02
550.662	7285.24
551.008	7659.77
551.353	8740.8
551.699	9441.13
552.045	9233.94
552.391	8559.34
552.736	8454.53
553.082	8305.82
553.427	8229.32
553.773	7720.5
554.118	7447.59
554.464	7752.55
554.809	8361.54
555.154	8910.64
555.5	8854.14
555.845	8404.29
556.19	7782.51
556.535	7376.51
556.88	7470.05
557.225	7673.07
557.57	7478.41
557.915	7060.25
558.26	6823.22
558.605	6769.33
558.95	6944.3
559.295	7692.36
559.639	8414.65
559.984	9094.68
560.329	9312.89
560.673	9226.99
561.018	8808.46
561.362	8307.11
561.707	7821.83
562.051	7841.09
562.395	7999.5
562.74	8426.56
563.084	8654.24
563.428	9032.07
563.772	9033.1
564.117	9047.28
564.461	9145.15
564.805	9003.47
565.149	9010.17
565.493	8995.74
565.836	9274.06
566.18	9486.07
566.524	10606.6
566.868	11446.56
567.212	11962.27
567.555	12131.13
567.899	13077.81
568.242	14359.67
568.586	16077.25
568.929	18279.88
569.273	20743.19
569.616	21367.69
569.96	21691.62
570.303	22846.84
570.646	23579.1
570.989	24798.85
571.333	24952.96
571.676	23486.35
572.019	19838.65
572.362	20468.65
572.705	24044.09
573.048	27664.13
573.391	29559.28
573.733	30633.12
574.076	31136.74
574.419	30234.48
574.762	26942.11
575.104	23640.45
575.447	22499.55
575.789	25425.84
576.132	29710.28
576.474	30087.61
576.817	34646.38
577.159	39807.18
577.501	41518.5
577.844	36420.48
578.186	28121.32
578.528	24311.29
578.87	24130.21
579.212	25526.21
579.554	28379.81
579.896	27967.52
580.238	29862.77
580.58	39770.7
580.922	46798.53
581.264	50684.1
581.606	43353.52
581.947	37182.61
582.289	29769.06
582.631	23497.15
582.972	20127.65
583.314	20372.29
583.655	21765.53
583.997	25777.28
584.338	30890.57
584.679	34332.93
585.021	34062.73
585.362	28921.25
585.703	24545.38
586.044	22789.17
586.385	25742.18
586.726	28958.37
587.067	28412
587.408	24838.12
587.749	22319.63
588.09	20426.62
588.431	18578.46
588.772	16581.06
589.113	17008.73
589.453	17530.78
589.794	16913.49
590.134	15250.02
590.475	14124.98
590.815	14248.85
591.156	14512.85
591.496	14795.02
591.837	19623.13
592.177	24701.44
592.517	28406.35
592.857	26021.99
593.198	22747.94
593.538	18426.85
593.878	16554.07
594.218	17273.05
594.558	19544.63
594.898	19180.31
595.237	17123.23
595.577	14806.72
595.917	13113.96
596.257	13956.8
596.596	14866.75
596.936	16225.03
597.276	14839.36
597.615	14838.61
597.955	18412.06
598.294	22489.98
598.633	22960.47
598.973	21096.02
599.312	20475.29
599.651	20676.34
599.991	19781.83
600.33	19184.98
600.669	18064.04
601.008	17138.31
601.347	15636.48
601.686	16487.2
602.025	16605.08
602.364	18066.75
602.702	18977.38
603.041	19241.37
603.38	17642.42
603.719	15987.46
604.057	14645
604.396	14752.66
604.734	15598.97
605.073	19159.87
605.411	19287.16
605.75	18333.64
606.088	15833.12
606.426	16339.04
606.764	17107.65
607.103	16654.11
607.441	15150.27
607.779	14386.63
608.117	14624.56
608.455	13917.54
608.793	12888.45
609.131	14745.68
609.469	16169.25
609.806	16342.51
610.144	13811.76
610.482	12945.48
610.819	13305.11
611.157	13240.66
611.495	12404.41
611.832	12080.92
612.17	12287.48
612.507	12829.9
612.844	12546.93
613.182	12485
613.519	12615.89
613.856	12727.83
614.193	12742.66
614.53	13532.91
614.867	13906.79
615.205	12698.65
615.541	11703.72
615.878	10399.38
616.215	10687.57
616.552	10594.88
616.889	10987.14
617.226	11577.72
617.562	11009.75
617.899	9802.29
618.235	8641.84
618.572	7886.89
618.908	8366.98
619.245	9220.56
619.581	9922.63
619.918	8957.84
620.254	6718.31
620.59	6041.77
620.926	6964.24
621.262	8142.9
621.599	8425.27
621.935	8293.37
622.271	8987.49
622.606	9498.65
622.942	9336.29
623.278	8438.99
623.614	9037.49
623.95	9455
624.285	9259.66
624.621	8290.78
624.957	7609.44
625.292	7305.9
625.628	6802.19
625.963	6587.74
626.299	6950.33
626.634	7222.95
626.969	7139.93
627.304	6244.98
627.64	5171.08
627.975	5175.09
628.31	5711.16
628.645	6427.2
628.98	6140.78
629.315	5987.72
629.65	5759.26
629.985	5758.2
630.319	5366.58
630.654	5063.8
630.989	5209.31
631.323	5079.06
631.658	4815.32
631.993	4312.18
632.327	4238.98
632.662	4274.1
632.996	4505.81
633.33	4668.1
633.665	4465.93
633.999	4089.14
634.333	4033.36
634.667	4040.95
635.001	4247.09
635.335	4495.3
635.669	4955.33
636.003	5011.59
636.337	4511.2
636.671	4045.82
637.005	3679.11
637.339	3705.23
637.672	3964.53
638.006	4323.25
638.339	4285.44
638.673	3983.51
639.006	3712.84
639.34	3648.37
639.673	3608.08
640.007	3616.79
640.34	3525.82
640.673	3422.18
641.006	3371.68
641.34	3297.37
641.673	3143.9
642.006	3020.3
642.339	3120.35
642.672	3205.76
643.004	3152.66
643.337	2993.69
643.67	2903.38
644.003	2943.75
644.336	2961.59
644.668	2994.24
645.001	2934.41
645.333	2856.12
645.666	2655.79
645.998	2563.98
646.331	2454.38
646.663	2487.8
646.995	2808.01
647.327	3277.15
647.66	3772.91
647.992	3943.38
648.324	4032.01
648.656	3869.86
648.988	3593.38
649.32	3165.8
649.652	2789.03
649.983	2616.93
650.315	2551.01
650.647	2647.8
650.979	2974.76
651.31	3231.48
651.642	3426.82
651.973	3421.36
652.305	3456.56
652.636	3379.6
652.967	3189.07
653.299	3033.74
653.63	2938.25
653.961	3336.18
654.292	4785.25
654.623	27155.74
654.955	68929.95
655.286	68929.95
655.616	68929.95
655.947	68929.95
656.278	68929.95
656.609	28643.75
656.94	14591.9
657.27	9755.92
657.601	7847.08
657.932	6256.35
658.262	4809.68
658.593	3735.13
658.923	2929.19
659.254	2506.58
659.584	2311.98
659.914	2121.6
660.244	2018.59
660.575	2086.36
660.905	2085.25
661.235	2139.08
661.565	2207.84
661.895	2226.69
662.225	2139.91
662.555	2117.44
662.884	2070.25
663.214	2170.42
663.544	2237.22
663.873	2271.84
664.203	2350.99
664.533	2431.45
664.862	2531.97
665.192	2387.5
665.521	2188.72
665.85	1995.25
666.18	1871.2
666.509	1840.85
666.838	1932.69
667.167	1989.69
667.496	1997.48
667.825	1939.09
668.154	1912.11
668.483	1985.25
668.812	2023.04
669.141	2091.91
669.47	2147.68
669.798	2119.1
670.127	2054.7
670.456	2149.62
670.784	2736.48
671.113	3269.49
671.441	3657.62
671.77	3614.62
672.098	3330.71
672.426	2739.23
672.755	2316.13
673.083	2217.27
673.411	2236.94
673.739	2203.41
674.067	2017.76
674.395	1950.21
674.723	2029.98
675.051	2180.4
675.379	2189.83
675.706	2146.29
676.034	2025.82
676.362	1997.2
676.689	2147.12
677.017	2569.5
677.344	2795.36
677.672	2776.38
677.999	2636.77
678.327	2687.74
678.654	2937.71
678.981	3177.3
679.308	3176.2
679.636	2903.65
679.963	2613.89
680.29	2474.27
680.617	2569.77
680.944	2708.67
681.271	2677.28
681.597	2359.85
681.924	2020.54
682.251	1983.58
682.578	2170.42
682.904	2488.08
683.231	2807.19
683.557	2894.31
683.884	3009.88
684.21	3221.08
684.536	3404.44
684.863	3556.88
685.189	3480.02
685.515	3148.01
685.841	2868.76
686.167	2773.35
686.493	2920.41
686.819	2934.96
687.145	2679.48
687.471	2316.13
687.797	2137.14
688.123	2147.4
688.448	2308.1
688.774	2508.79
689.1	2462.95
689.425	2292.33
689.751	2155.72
690.076	2303.68
690.402	2702.61
690.727	2947.31
691.052	2891.57
691.377	2648.07
691.703	2524.52
692.028	2456.04
692.353	2598.18
692.678	2587.15
693.003	2504.09
693.328	2127.98
693.652	1922.4
693.977	1949.94
694.302	2151.56
694.627	2357.91
694.951	2247.47
695.276	1922.68
695.6	1707.61
695.925	2101.62
696.249	2805.81
696.574	3262.38
696.898	3176.75
697.222	2689.67
697.546	2435.32
697.871	2337.16
698.195	2329.14
698.519	2191.77
698.843	2099.12
699.167	1930.47
699.491	1849.2
699.814	1804.08
700.138	1768.12
700.462	1794.32
700.786	1758.64
701.109	1850.59
701.433	2043.32
701.756	2187.33
702.08	2211.17
702.403	2159.05
702.726	1956.05
703.05	1833.33
703.373	1794.04
703.696	1814.94
704.019	1700.91
704.342	1609.06
704.665	1495.83
704.988	1433.13
705.311	1633.64
705.634	1960.23
705.957	2449.41
706.28	2869.86
706.602	3041.69
706.925	2945.12
707.247	2694.35
707.57	2462.67
707.892	2300.63
708.215	2088.02
708.537	1913.78
708.859	1940.2
709.182	1941.87
709.504	2081.64
709.826	2219.76
710.148	2208.4
710.47	2083.86
710.792	1964.4
711.114	1781.22
711.436	1700.35
711.758	1742.19
712.079	1796.55
712.401	2001.92
712.723	2139.91
713.044	2409.89
713.366	2565.91
713.687	2520.1
714.009	2345.18
714.33	2252.73
714.652	2109.67
714.973	2028.6
715.294	1792.93
715.615	1611.85
715.936	1536.11
716.257	1497.79
716.578	1553.16
716.899	1612.69
717.22	1811.04
717.541	1914.61
717.862	1958
718.182	1924.9
718.503	2019.15
718.824	2016.93
719.144	1964.4
719.465	1804.63
719.785	1827.2
720.105	1958.56
720.426	1991.08
720.746	2002.48
721.066	1936.87
721.386	1856.44
721.706	1800.73
722.026	1741.36
722.346	1710.4
722.666	1728.53
722.986	1833.05
723.306	1856.44
723.626	1754.18
723.946	1745.82
724.265	1863.4
724.585	2145.18
724.904	2212.55
725.224	2211.45
725.543	2205.63
725.863	2158.5
726.182	2020.26
726.501	1912.11
726.82	1899.59
727.14	2012.2
727.459	2168.48
727.778	2182.34
728.097	2145.18
728.416	2128.54
728.734	2306.17
729.053	2374.5
729.372	2429.79
729.691	2414.59
730.009	2749.96
730.328	2912.44
730.647	3017.28
730.965	2824.23
731.283	2593.49
731.602	2441.4
731.92	2500.23
732.238	2624.37
732.557	2760.7
732.875	2798.39
733.193	3148.01
733.511	3449.19
733.829	3355.57
734.147	2901.18
734.465	2574.74
734.782	2556.81
735.1	2652.48
735.418	2706.19
735.735	2704.27
736.053	2756.84
736.371	2759.05
736.688	2561.77
737.005	2324.43
737.323	2041.93
737.64	2085.52
737.957	2263.25
738.274	2717.48
738.592	2996.99
738.909	2891.02
739.226	2433.11
739.543	2014.7
739.86	1821.63
740.176	1704.54
740.493	1643.97
740.81	1551.76
741.127	1600.12
741.443	1807.7
741.76	1969.68
742.076	1981.91
742.393	1848.64
742.709	1636.71
743.025	1490.23
743.342	1549.25
743.658	1648.99
743.974	1737.17
744.29	1736.34
744.606	1693.65
744.922	1694.77
745.238	1637.27
745.554	1604.31
745.87	1562.67
746.186	1641.73
746.501	1813.83
746.817	1801.01
747.132	1596.76
747.448	1378.78
747.763	1386.07
748.079	1514.57
748.394	1798.5
748.71	2066.65
749.025	2303.12
749.34	2406.85
749.655	2312.26
749.97	2183.17
750.285	2058.87
750.6	2157.94
750.915	2244.97
751.23	2233.34
751.545	2052.48
751.859	1926.85
752.174	1785.13
752.489	1991.36
752.803	2284.02
753.118	2366.76
753.432	2223.09
753.747	2062.48
754.061	2130.48
754.375	2292.33
754.689	2482
755.004	2545.22
755.318	2606.45
755.632	2838.81
755.946	3029.9
756.26	3222.73
756.573	3604.27
756.887	3776.45
757.201	3700.06
757.515	3103.09
757.828	2616.65
758.142	2531.7
758.455	2910.8
758.769	3380.69
759.082	3533.72
759.396	3664.7
759.709	3733.5
760.022	3727.52
760.335	3413.18
760.648	2916.56
760.962	2480.9
761.275	2172.92
761.587	2093.3
761.9	2162.1
762.213	2276.82
762.526	2552.67
762.839	2581.08
763.151	2685.26
763.464	2948.14
763.776	3495.01
764.089	3716.37
764.401	3495.56
764.714	3033.74
765.026	2654.69
765.338	2280.14
765.65	1995.53
765.962	1748.05
766.275	1683.33
766.587	1627.21
766.898	1732.99
767.21	1992.75
767.522	2387.78
767.834	2612.52
768.146	2542.73
768.457	2341.86
768.769	2024.15
769.08	1931.02
769.392	2140.19
769.703	2350.44
770.015	2555.98
770.326	2610.59
770.637	2442.23
770.948	2129.09
771.26	1771.19
771.571	1744.42
771.882	1794.6
772.193	1875.09
772.504	1817.45
772.814	1710.4
773.125	1607.1
773.436	1510.09
773.747	1455.81
774.057	1420.8
774.368	1423.61
774.678	1372.34
774.989	1295.5
775.299	1237.69
775.609	1215.22
775.919	1242.74
776.23	1272.49
776.54	1250.88
776.85	1250.04
777.16	1275.58
777.47	1400.92
777.78	1617.16
778.089	1745.82
778.399	1774.26
778.709	1632.8
779.019	1475.68
779.328	1303.92
779.638	1268.56
779.947	1512.05
780.257	1835.83
780.566	2003.87
780.875	1934.08
781.185	1719.88
781.494	1593.41
781.803	1523.24
782.112	1467.84
782.421	1508.42
782.73	1571.61
783.039	1599
783.348	1396.71
783.656	1223.65
783.965	1149.75
784.274	1241.34
784.582	1367.01
784.891	1425.85
785.199	1344.86
785.508	1253.41
785.816	1224.49
786.124	1252.85
786.432	1391.67
786.741	1489.95
787.049	1546.17
787.357	1490.79
787.665	1479.04
787.973	1512.33
788.281	1393.35
788.588	1238.53
788.896	1101.66
789.204	1048.76
789.511	1040.59
789.819	1025.95
790.126	1000.04
790.434	1036.93
790.741	1035.53
791.049	1067.34
791.356	989.34
791.663	943.4
791.97	939.17
792.277	963.98
792.584	1067.34
792.891	1287.65
793.198	1543.38
793.505	1620.51
793.812	1517.65
794.119	1408.76
794.425	1331.13
794.732	1219.99
795.038	1016.66
795.345	879.09
795.651	813.03
795.958	781.11
796.264	858.21
796.57	1005.11
796.876	1058.05
797.183	1006.24
797.489	915.2
797.795	887.84
798.101	926.76
798.406	922.25
798.712	874.3
799.018	848.05
799.324	831.11
799.629	805.97
799.935	810.77
800.24	777.72
800.546	792.41
800.851	791.28
801.157	750.87
801.462	703.93
801.767	718.64
802.072	739.28
802.377	818.4
802.682	817.27
802.987	771.22
803.292	771.5
803.597	736.17
803.902	749.46
804.207	765.85
804.511	787.61
804.816	773.48
805.12	945.94
805.425	1057.2
805.729	1070.43
806.034	992.15
806.338	854.26
806.642	832.24
806.946	790.15
807.251	815.86
807.555	855.67
807.859	834.78
808.162	860.75
808.466	808.23
808.77	766.42
809.074	718.36
809.378	725.71
809.681	718.36
809.985	704.5
810.288	733.63
810.592	699.12
810.895	710.72
811.198	629.22
811.502	622.71
811.805	614.49
812.108	622.42
812.411	688.37
812.714	779.13
813.017	821.51
813.32	828
813.623	767.83
813.926	696.58
814.228	670.27
814.531	631.48
814.833	588.72
815.136	617.33
815.438	620.72
815.741	636.02
816.043	652.43
816.345	664.89
816.648	660.64
816.95	649.04
817.252	637.15
817.554	599.77
817.856	603.45
818.158	577.1
818.46	586.17
818.761	579.37
819.063	613.93
819.365	636.58
819.666	688.09
819.968	710.16
820.269	726.56
820.571	684.13
820.872	638.85
821.173	609.96
821.475	601.75
821.776	614.78
822.077	602.6
822.378	585.88
822.679	592.4
822.98	594.1
823.281	589.28
823.581	591.27
823.882	576.53
824.183	581.92
824.483	584.75
824.784	598.63
825.084	586.17
825.385	597.22
825.685	614.49
825.985	602.03
826.286	574.83
826.586	599.77
826.886	618.46
827.186	616.76
827.486	585.03
827.786	555.56
828.086	575.68
828.386	593.82
828.685	572.57
828.985	583.33
829.285	570.58
829.584	549.33
829.884	534.02
830.183	553.29
830.482	538.55
830.782	503.96
831.081	524.66
831.38	525.51
831.679	515.02
831.978	530.05
832.277	528.91
832.576	551.59
832.875	556.41
833.174	551.59
833.472	543.09
833.771	526.64
834.07	551.03
834.368	531.75
834.667	524.66
834.965	529.2
835.263	532.31
835.562	524.66
835.86	540.25
836.158	497.15
836.456	494.31
836.754	506.51
837.052	485.8
837.35	494.31
837.648	503.1
837.946	498.28
838.243	505.94
838.541	467.35
838.839	488.07
839.136	504.24
839.434	494.03
839.731	539.69
840.028	500.55
840.326	496.3
840.623	503.39
840.92	506.22
841.217	477.57
841.514	501.4
841.811	448.9
842.108	526.08
842.405	481.54
842.701	482.96
842.998	479.84
843.295	497.43
843.591	454.01
843.888	494.88
844.184	502.82
844.481	513.03
844.777	488.92
845.073	487.5
845.369	463.66
845.665	502.82
845.962	492.04
846.258	460.83
846.553	482.11
846.849	508.49
847.145	492.04
847.441	485.23
847.737	506.22
848.032	487.78
848.328	497.71
848.623	491.76
848.919	478.42
849.214	489.2
849.509	505.37
849.805	504.52
850.1	483.53
850.395	483.81
850.69	480.41
850.985	485.8
851.28	491.19
851.575	492.04
851.869	474.45
852.164	493.46
852.459	509.63
852.753	506.22
853.048	503.1
853.342	515.87
853.637	548.76
853.931	494.03
854.225	518.7
854.52	516.72
854.814	524.94
855.108	500.83
855.402	500.83
855.696	501.12
855.99	484.66
856.283	499.98
856.577	500.55
856.871	511.33
857.164	484.95
857.458	494.31
857.751	476.15
858.045	494.59
858.338	491.47
858.632	506.79
858.925	484.1
859.218	498.85
859.511	507.36
859.804	482.96
860.097	488.07
860.39	492.04
860.683	481.26
860.976	480.41
861.268	479.27
861.561	496.86
861.854	487.5
862.146	476.72
862.439	479.27
862.731	490.05
863.023	483.53
863.316	468.21
863.608	462.81
863.9	473.31
864.192	467.07
864.484	457.42
864.776	493.74
865.068	476.72
865.36	487.22
865.651	469.34
865.943	447.2
866.235	466.5
866.526	462.53
866.818	465.37
867.109	456.85
867.4	487.78
867.692	490.62
867.983	475.87
868.274	475.3
868.565	474.17
868.856	479.56
869.147	475.3
869.438	487.5
869.729	465.08
870.02	490.34
870.31	464.8
870.601	486.37
870.892	474.73
871.182	497.15
871.473	454.58
871.763	488.35
872.053	482.39
872.343	471.04
872.634	458.27
872.924	500.55
873.214	460.83
873.504	467.64
873.794	459.98
874.084	459.98
874.373	486.65
874.663	469.34
874.953	481.83
875.242	473.03
875.532	467.07
875.821	475.87
876.111	477
876.4	478.14
876.689	476.72
876.978	463.95
877.268	464.52
877.557	477.85
877.846	482.39
878.134	461.39
878.423	461.39
878.712	461.39
